200.3762491,0.054766031286840301
201.57806688663257,0.051482101923776086
202.77988467326514,0.050342143862356137
203.98170245989772,0.058921709415089854
205.18352024653029,0.076911825260938538
206.38533803316287,0.084582890801272931
207.58715581979544,0.083743432116913333
208.78897360642802,0.075667048210549689
209.99079139306059,0.065551905090497825
211.19260917969316,0.065665854810572188
212.39442696632574,0.074729399270335173
213.59624475295831,0.086366976238361953
214.79806253959089,0.10019185467643651
215.99988032622346,0.092081508710170096
217.20169811285604,0.078234691357468203
218.40351589948861,0.079328296531607237
219.60533368612118,0.0975482581279008
220.80715147275376,0.10858189702159836
222.00896925938633,0.10171895715998887
223.21078704601891,0.084977657456808242
224.41260483265148,0.072822741896067161
225.61442261928406,0.065608658281904653
226.81624040591663,0.062743415619013657
228.0180581925492,0.056629440244292222
229.21987597918178,0.064622158762605603
230.42169376581435,0.07373372490544014
231.62351155244693,0.07107181931694638
232.8253293390795,0.055333097939040621
234.02714712571208,0.046986236280806802
235.22896491234465,0.059086926661312537
236.43078269897723,0.087526715906549701
237.6326004856098,0.10898277136369966
238.83441827224237,0.10871947129224591
240.03623605887495,0.09548836184981252
241.23805384550752,0.091242013383944193
242.4398716321401,0.093430983477259755
243.64168941877267,0.10171136995210583
244.84350720540525,0.10942105510718601
246.04532499203782,0.11298170547708405
247.24714277867039,0.12722353023942129
248.44896056530297,0.13961604540546244
249.65077835193554,0.14806480304770617
250.85259613856812,0.16437603097434786
252.05441392520069,0.16698285509515126
253.25623171183327,0.1648397618918612
254.45804949846584,0.16599972144558053
255.65986728509841,0.16009973034649158
256.86168507173102,0.16784700962802213
258.06350285836362,0.18713801825426421
259.26532064499622,0.20420936481768598
260.46713843162883,0.23105291799213992
261.66895621826143,0.244080145838979
262.87077400489403,0.24863972823857089
264.07259179152663,0.26189183436221491
265.27440957815924,0.26999524250680601
266.47622736479184,0.2690114041949368
267.67804515142444,0.25662184285911133
268.87986293805704,0.23618068358621844
270.08168072468965,0.24343337421039099
271.28349851132225,0.25213293836842626
272.48531629795485,0.2450026614205558
273.68713408458746,0.22833430948608269
274.88895187122006,0.21406811735313555
276.09076965785266,0.21235657877933456
277.29258744448526,0.22125852289543066
278.49440523111787,0.21308720955319871
279.69622301775047,0.19387738097595483
280.89804080438307,0.17272902222425321
282.09985859101567,0.15638696903506713
283.30167637764828,0.13681757130445352
284.50349416428088,0.13633805886863865
285.70531195091348,0.14633070962843389
286.90712973754609,0.1520540509817922
288.10894752417869,0.15174907160973619
289.31076531081129,0.13312241882880643
290.51258309744389,0.1104938039983602
291.7144008840765,0.10611561019359127
292.9162186707091,0.10553612540231039
294.1180364573417,0.1122221987726566
295.31985424397431,0.11199921498970652
296.52167203060691,0.097280752386201055
297.72348981723951,0.091810282115336497
298.92530760387211,0.09095861296026804
300.12712539050472,0.095304450971851917
301.32894317713732,0.10183765164916472
302.53076096376992,0.10332841477579134
303.73257875040252,0.11251579503079841
304.93439653703513,0.11850391767781789
306.13621432366773,0.10189102103228842
307.33803211030033,0.08537835128324496
308.53984989693294,0.076008873339716468
309.74166768356554,0.078177444909544841
310.94348547019814,0.089737201867554392
312.14530325683074,0.09112529198440511
313.34712104346335,0.081472642907265289
314.54893883009595,0.072150403336803684
315.75075661672855,0.069815394073032291
316.95257440336115,0.073797310336618765
318.15439218999376,0.067343466808890723
319.35620997662636,0.050008183764054796
320.55802776325896,0.039575039509982167
321.75984554989157,0.052957951266246459
322.96166333652417,0.062812450599385464
324.16348112315677,0.052423546910555438
325.36529890978937,0.0357069310398241
326.56711669642198,0.032861883851036951
327.76893448305458,0.043134387564435842
328.97075226968718,0.052134070049197227
330.17257005631978,0.046655664573354884
331.37438784295239,0.032913092911831879
332.57620562958499,0.023078363780425985
333.77802341621759,0.019770086187226699
334.9798412028502,0.019218023206407781
336.1816589894828,0.035732384362688024
337.3834767761154,0.048367384973374963
338.585294562748,0.045182316245198195
339.78711234938061,0.041743823784835092
340.98893013601321,0.040647584540028515
342.19074792264581,0.04758950173071979
343.39256570927841,0.065158121129969049
344.59438349591102,0.070178499496263452
345.79620128254362,0.072028215264356779
346.99801906917622,0.073009449764733655
348.19983685580883,0.074265098202137433
349.40165464244143,0.079064897090678973
350.60347242907403,0.088979710144698881
351.80529021570663,0.093602031797263327
353.00710800233924,0.088078725733500687
354.20892578897184,0.073618059952550011
355.41074357560444,0.078740355098447332
356.61256136223705,0.089874084436547971
357.81437914886965,0.092502394888849065
359.01619693550225,0.085130980590217592
360.21801472213485,0.07707470805864991
361.41983250876746,0.078040632250309397
362.62165029540006,0.084254518743107951
363.82346808203266,0.063569388514159803
365.02528586866526,0.056618264340139536
366.22710365529787,0.06338515521009587
367.42892144193047,0.072072719342334793
368.63073922856307,0.074317469064962727
369.83255701519568,0.059085015779252091
371.03437480182828,0.038658972590664281
372.23619258846088,0.038118877605434746
373.43801037509348,0.047104609891366819
374.63982816172609,0.054776277451699218
375.84164594835869,0.058599952526486122
377.04346373499129,0.055192665650974755
378.24528152162389,0.048963202208508909
379.4470993082565,0.046769272975343584
380.6489170948891,0.035585282181067872
381.8507348815217,0.033406252108647068
383.05255266815431,0.083193109151707481
384.25437045478691,0.11850188175535512
385.45618824141951,0.10928890114356239
386.65800602805211,0.062670890325163611
387.85982381468472,0.013541909861565071
389.06164160131732,0.0073489087082081305
390.26345938794992,0.037355854505782375
391.46527717458252,0.044188551232684559
392.66709496121513,0.036420347869876538
393.86891274784773,0.028422077753528542
395.07073053448033,0.015070055062727338
396.27254832111294,0.017878287119089554
397.47436610774554,0.050120573330153267
398.67618389437814,0.060170960958230969
399.87800168101074,0.066356985001706476
401.07981946764335,0.073980017276743401
402.28163725427595,0.070938697252049196
403.48345504090855,0.090859749493001823
404.68527282754116,0.099311580958309373
405.88709061417376,0.088672122394353861
407.08890840080636,0.092281719196495776
408.29072618743896,0.099518772958031465
409.49254397407157,0.10558515071549644
410.69436176070417,0.10118335256138103
411.89617954733677,0.077153110787412355
413.09799733396937,0.071088978763895111
414.29981512060198,0.077685488499343355
415.50163290723458,0.088642348624282191
416.70345069386718,0.086122204423757634
417.90526848049979,0.071342753981388091
419.10708626713239,0.061420794668234975
420.30890405376499,0.064338055991643217
421.51072184039759,0.066078796706412826
422.7125396270302,0.064521427431616499
423.9143574136628,0.056466090968533847
425.1161752002954,0.048015521342429208
426.317992986928,0.04882738106319684
427.51981077356061,0.054820447629370016
428.72162856019321,0.046751501074047977
429.92344634682581,0.040839170118036817
431.12526413345842,0.041313200522886416
432.32708192009102,0.04316950135477797
433.52889970672362,0.056241427427497472
434.73071749335622,0.061569183043264968
435.93253527998883,0.048643604765911987
437.13435306662143,0.035160914595991952
438.33617085325403,0.030136490604550117
439.53798863988663,0.048026244335508637
440.73980642651924,0.072595803241824367
441.94162421315184,0.072736376243557249
443.14344199978444,0.057863490350445058
444.34525978641705,0.040281611177624431
445.54707757304965,0.042179422284907842
446.74889535968225,0.055409243437398593
447.95071314631485,0.062105153306259785
449.15253093294746,0.060116973210378614
450.35434871958006,0.052715112066479823
451.55616650621266,0.048195028670141159
452.75798429284526,0.058224829711036194
453.95980207947787,0.076505055736411157
455.16161986611047,0.08794566490179595
456.36343765274307,0.08818729837359221
457.56525543937568,0.081452600500665953
458.76707322600828,0.078329619065273998
459.96889101264088,0.074517188882561647
461.17070879927348,0.076153481389939826
462.37252658590609,0.080007592847280345
463.57434437253869,0.084241606158106316
464.77616215917129,0.094157645889839506
465.9779799458039,0.097372330076706454
467.1797977324365,0.088292908707841219
468.3816155190691,0.08573893631121339
469.5834333057017,0.083593544683752491
470.78525109233431,0.077498273789378583
471.98706887896691,0.07563754755688451
473.18888666559951,0.077473874909786578
474.39070445223211,0.07518238333804074
475.59252223886472,0.075124120649542575
476.79434002549732,0.073079935767761228
477.99615781212992,0.070966495966726009
479.19797559876253,0.071365770563394715
480.39979338539513,0.068489167705484078
481.60161117202773,0.058572917612848385
482.80342895866033,0.056366983097260751
484.00524674529294,0.048652336159763478
485.20706453192554,0.048047868308842626
486.40888231855814,0.049764490442255456
487.61070010519074,0.054678830288353977
488.81251789182335,0.066353319613246947
490.01433567845595,0.068269775687778533
491.21615346508855,0.054995859811195182
492.41797125172116,0.043424344005864521
493.61978903835376,0.037043664458333563
494.82160682498636,0.045241242482346705
496.02342461161896,0.061026765592339355
497.22524239825157,0.065291967637049836
498.42706018488417,0.061442191471520517
499.62887797151677,0.054236381087752736
500.83069575814937,0.056284847466937529
502.03251354478198,0.061423743268493418
503.23433133141458,0.065115418487599427
504.43614911804718,0.059673785450763239
505.63796690467979,0.056023582657644129
506.83978469131239,0.044812280289910751
508.04160247794499,0.042267999178367086
509.24342026457759,0.04574835294946198
510.4452380512102,0.067836765823522938
511.6470558378428,0.078031996023908812
512.84887362447535,0.076386745179233675
514.05069141110789,0.062711241045940863
515.25250919774044,0.059663894914028459
516.45432698437298,0.061917163481604538
517.65614477100553,0.064784679461729153
518.85796255763807,0.057203100726333278
520.05978034427062,0.059595313758364625
521.26159813090317,0.055904213547992992
522.46341591753571,0.054863721088709155
523.66523370416826,0.056267672346246439
524.8670514908008,0.059254388415801759
526.06886927743335,0.065050383209764986
527.2706870640659,0.061745862621228012
528.47250485069844,0.062831231320555042
529.67432263733099,0.072713524468434987
530.87614042396353,0.073427675418138341
532.07795821059608,0.064740401486181959
533.27977599722863,0.061278444685019876
534.48159378386117,0.0602238064473384
535.68341157049372,0.069346465134990681
536.88522935712626,0.08889465611704736
538.08704714375881,0.086110839490078514
539.28886493039136,0.074119625701812394
540.4906827170239,0.070168349436882785
541.69250050365645,0.067712707177055409
542.89431829028899,0.06475011356163371
544.09613607692154,0.068358604541391671
545.29795386355408,0.061636678049625707
546.49977165018663,0.067333969534823818
547.70158943681918,0.07314321781561961
548.90340722345172,0.065338216679206237
550.10522501008427,0.052477335158402985
551.30704279671681,0.051577821352160498
552.50886058334936,0.059532789193635222
553.71067836998191,0.063276885588506651
554.91249615661445,0.056573663419598477
556.114313943247,0.043325868971706552
557.31613172987954,0.040327714425785519
558.51794951651209,0.044915052320542097
559.71976730314464,0.043530292369067559
560.92158508977718,0.04491629089169373
562.12340287640973,0.054645159386090367
563.32522066304227,0.054216272845516063
564.52703844967482,0.053195435226543554
565.72885623630737,0.053268409019149122
566.93067402293991,0.062274640997437188
568.13249180957246,0.085113810528088335
569.334309596205,0.09528165611573336
570.53612738283755,0.087005065842246043
571.73794516947009,0.072650530889866227
572.93976295610264,0.04964311819561195
574.14158074273519,0.035075275927853075
575.34339852936773,0.040684956328609849
576.54521631600028,0.046697720994407187
577.74703410263282,0.04840855367969369
578.94885188926537,0.050024114537937786
580.15066967589792,0.057083140738407714
581.35248746253046,0.066327176639225466
582.55430524916301,0.075564750250777496
583.75612303579555,0.079608075709661399
584.9579408224281,0.088220121806445895
586.15975860906065,0.084061966916177497
587.36157639569319,0.070841636840291017
588.56339418232574,0.056122101781021963
589.76521196895828,0.05299792765616361
590.96702975559083,0.070467165779011076
592.16884754222338,0.088204562655415264
593.37066532885592,0.089644004728582402
594.57248311548847,0.078169953016216112
595.77430090212101,0.057713521030878706
596.97611868875356,0.043272576485389756
598.1779364753861,0.053866993980374249
599.37975426201865,0.066839422076516844
600.5815720486512,0.075039440729645815
601.78338983528374,0.07632039213920018
602.98520762191629,0.068309422205606041
604.18702540854883,0.07092191649696987
605.38884319518138,0.075905015772951612
606.59066098181393,0.063457386803666527
607.79247876844647,0.053518442424708448
608.99429655507902,0.049591106144073152
610.19611434171156,0.052220778491811976
611.39793212834411,0.058843619471769831
612.59974991497666,0.050585000824511998
613.8015677016092,0.050825137820557698
615.00338548824175,0.06127879796559494
616.20520327487429,0.066431769522367429
617.40702106150684,0.068986384371350962
618.60883884813938,0.076470691751778272
619.81065663477193,0.086209990956077981
621.01247442140448,0.087140048044675233
622.21429220803702,0.074832986674777613
623.41610999466957,0.071829480568845722
624.61792778130211,0.097741998526961846
625.81974556793466,0.13893669559910146
627.02156335456721,0.18521075187512992
628.22338114119975,0.2539549879875555
629.4251989278323,0.35179518122137116
630.62701671446484,0.45670320756184957
631.82883450109739,0.52737776541678616
633.03065228772994,0.54283659705532972
634.23247007436248,0.51067941665716521
635.43428786099503,0.43747181786904821
636.63610564762757,0.34016957405456633
637.83792343426012,0.24076770073962075
639.03974122089267,0.16213392629447462
640.24155900752521,0.11910465794903469
641.44337679415776,0.10434817719167229
642.6451945807903,0.10325126746169055
643.84701236742285,0.10111983298837775
645.04883015405539,0.091397780809051421
646.25064794068794,0.084725685712977256
647.45246572732049,0.08646111249273962
648.65428351395303,0.091992896631221552
649.85610130058558,0.083724862938834091
651.05791908721812,0.070885917367671691
652.25973687385067,0.070406750782503608
653.46155466048322,0.082354581598931498
654.66337244711576,0.092429924648348677
655.86519023374831,0.092400860791963524
657.06700802038085,0.080842773427714648
658.2688258070134,0.070886709946647294
659.47064359364595,0.06090303315050076
660.67246138027849,0.058690670572107653
661.87427916691104,0.062981247863791057
663.07609695354358,0.07396936281957342
664.27791474017613,0.085383131136064147
665.47973252680868,0.079141965284363569
666.68155031344122,0.071311654231982213
667.88336810007377,0.069024338596668136
669.08518588670631,0.06863717892146165
670.28700367333886,0.077921200334207477
671.4888214599714,0.076185773464969631
672.69063924660395,0.069096568883846937
673.8924570332365,0.06952016249480443
675.09427481986904,0.065491575370074689
676.29609260650159,0.063937263081713325
677.49791039313413,0.063955726329090815
678.69972817976668,0.059727852232786142
679.90154596639923,0.065066967969249934
681.10336375303177,0.06870127179502819
682.30518153966432,0.077599887082501193
683.50699932629686,0.072554314331709724
684.70881711292941,0.059531307143190798
685.91063489956196,0.047057777162911901
687.1124526861945,0.044338381555678472
688.31427047282705,0.057047738185507554
689.51608825945959,0.064953104036583775
690.71790604609214,0.062782121387282175
691.91972383272469,0.065345007295123006
693.12154161935723,0.065870176132414207
694.32335940598978,0.064574196756466237
695.52517719262232,0.069656929991759223
696.72699497925487,0.079911945872100404
697.92881276588741,0.10860680727265035
699.13063055251996,0.14181671100535712
700.33244833915251,0.16801531737761344
701.53426612578505,0.18569961957269768
702.7360839124176,0.20369883736952288
703.93790169905014,0.21736787508639846
705.13971948568269,0.22364104454949618
706.34153727231524,0.21870088878682686
707.54335505894778,0.20019266586967743
708.74517284558033,0.18682629328200312
709.94699063221287,0.17698537748807447
711.14880841884542,0.1606858468029253
712.35062620547797,0.14702868165834196
713.55244399211051,0.13242217050211696
714.75426177874306,0.1110759598775386
715.9560795653756,0.092375257273380834
717.15789735200815,0.074371556503398037
718.35971513864069,0.062243944209117601
719.56153292527324,0.070019171350341275
720.76335071190579,0.072653105377993563
721.96516849853833,0.073526896322272092
723.16698628517088,0.080315499237466323
724.36880407180342,0.081570558461737316
725.57062185843597,0.063172876778911438
726.77243964506852,0.056353703883376009
727.97425743170106,0.052766879675446188
729.17607521833361,0.055957155898145275
730.37789300496615,0.060698310921915181
731.5797107915987,0.062929976148307989
732.78152857823125,0.071730666178978345
733.98334636486379,0.086338616751466424
735.18516415149634,0.077779911068644778
736.38698193812888,0.062160144147504238
737.58879972476143,0.06117018805245597
738.79061751139398,0.072366019999874021
739.99243529802652,0.080795314515749533
741.19425308465907,0.077184989782507707
742.39607087129161,0.074745289043331595
743.59788865792416,0.074675622425779228
744.7997064445567,0.07297469415493435
746.00152423118925,0.065869236831218106
747.2033420178218,0.058502635219319955
748.40515980445434,0.059982546156468822
749.60697759108689,0.057092047944759416
750.80879537771943,0.051149685328716298
752.01061316435198,0.056861468593987864
753.21243095098453,0.068369319442864063
754.41424873761707,0.067637818231672156
755.61606652424962,0.057313177499885175
756.81788431088216,0.052318166046072229
758.01970209751471,0.064960411740497062
759.22151988414726,0.079367843873668117
760.4233376707798,0.081366805562916963
761.62515545741235,0.083465289096036205
762.82697324404489,0.089221667954749298
764.02879103067744,0.10441447247979582
765.23060881730999,0.11735883782523929
766.43242660394253,0.1261819326207701
767.63424439057508,0.13050870181442623
768.83606217720762,0.14105286253104085
770.03787996384017,0.14840279807772383
771.23969775047271,0.16634415616260906
772.44151553710526,0.18280458044540854
773.64333332373781,0.19052926075258195
774.84515111037035,0.18381461942205213
776.0469688970029,0.16915466064169091
777.24878668363544,0.14680403240395976
778.45060447026799,0.1363511454282014
779.65242225690054,0.14566266464682148
780.85424004353308,0.15954357095290736
782.05605783016563,0.16007655251746303
783.25787561679817,0.1500859750802806
784.45969340343072,0.1380853601317342
785.66151119006327,0.13668964043985807
786.86332897669581,0.15097597070878305
788.06514676332836,0.16110058171480834
789.2669645499609,0.17447126823003187
790.46878233659345,0.1957568674722589
791.670600123226,0.2179871086086998
792.87241790985854,0.24120652330128717
794.07423569649109,0.2453833583637951
795.27605348312363,0.22932873860255457
796.47787126975618,0.20649741566355584
797.67968905638872,0.18258845526628345
798.88150684302127,0.17702026245716793
800.08332462965382,0.18358784005366027
801.28514241628636,0.19177324617657202
802.48696020291891,0.19278075206090309
803.68877798955145,0.18128797671361091
804.890595776184,0.17582631007986074
806.09241356281655,0.18482217129885348
807.29423134944909,0.17619759039907679
808.49604913608164,0.16782267830242348
809.69786692271418,0.16284312402466661
810.89968470934673,0.17381423321811312
812.10150249597928,0.18977731640370929
813.30332028261182,0.19318109982267967
814.50513806924437,0.1756824589435424
815.70695585587691,0.16803375679092178
816.90877364250946,0.16735378735390555
818.110591429142,0.17577750669404299
819.31240921577455,0.17598001330340751
820.5142270024071,0.18300435602653595
821.71604478903964,0.18477067853943271
822.91786257567219,0.18184411713147414
824.11968036230473,0.17792611906146227
825.32149814893728,0.16473994836233607
826.52331593556983,0.15440929687560401
827.72513372220237,0.1676245580147544
828.92695150883492,0.17660339046852369
830.12876929546746,0.1803593778708529
831.33058708210001,0.17924454624241132
832.53240486873256,0.17757136467868539
833.7342226553651,0.19371005727503385
834.93604044199765,0.20561233506244214
836.13785822863019,0.20364988630622627
837.33967601526274,0.20107818241787642
838.54149380189529,0.20667568824347352
839.74331158852783,0.21977676563390042
840.94512937516038,0.23858208997156319
842.14694716179292,0.25011279114843232
843.34876494842547,0.26142126060768495
844.55058273505801,0.27390397378021969
845.75240052169056,0.28485875316061632
846.95421830832311,0.29764674619894649
848.15603609495565,0.3146693625700972
849.3578538815882,0.33478357420606153
850.55967166822074,0.35810574107648174
851.76148945485329,0.38098825089119415
852.96330724148584,0.39328090857415332
854.16512502811838,0.40267179328711794
855.36694281475093,0.40531929437928527
856.56876060138347,0.40201540049996642
857.77057838801602,0.39664021059925769
858.97239617464857,0.39058651177694925
860.17421396128111,0.39037634304607266
861.37603174791366,0.3945469180486561
862.5778495345462,0.39113955349451734
863.77966732117875,0.38081996909417498
864.9814851078113,0.36303959443662887
866.18330289444384,0.34849547338095782
867.38512068107639,0.33927926992384788
868.58693846770893,0.33082824745304507
869.78875625434148,0.3210140131215663
870.99057404097402,0.30547027897690321
872.19239182760657,0.29225380166578063
873.39420961423912,0.27499101098548445
874.59602740087166,0.24991267778400539
875.79784518750421,0.23124815222320363
876.99966297413675,0.2271445406630577
878.2014807607693,0.23585328054432586
879.40329854740185,0.23718295762205002
880.60511633403439,0.21980556308732199
881.80693412066694,0.19996405950532789
883.00875190729948,0.19219507029518129
884.21056969393203,0.19503100614322183
885.41238748056458,0.19255508187570877
886.61420526719712,0.18444371789144146
887.81602305382967,0.17351298357282197
889.01784084046221,0.1694227643500564
890.21965862709476,0.16582588734378345
891.42147641372731,0.15107691238551457
892.62329420035985,0.12821344375848592
893.8251119869924,0.1191131771596655
895.02692977362494,0.11724120864652404
896.22874756025749,0.12485367858164259
897.43056534689003,0.12804532046122316
898.63238313352258,0.1223167283619593
899.83420092015513,0.10618496186237372
901.03601870678767,0.096966360684030695
902.23783649342022,0.085588015205941864
903.43965428005276,0.076417685729517917
904.64147206668531,0.072665241298389097
905.84328985331786,0.076819984327472918
907.0451076399504,0.083337906181911878
908.24692542658295,0.094296900432367894
909.44874321321549,0.087800668981588448
910.65056099984804,0.071945488856395318
911.85237878648059,0.059035845841831032
913.05419657311313,0.0530614131972569
914.25601435974568,0.061845993485488061
915.45783214637822,0.067415878230001919
916.65964993301077,0.071460307293297512
917.86146771964331,0.075263790544875753
919.06328550627586,0.076776981963665003
920.26510329290841,0.078127139268253681
921.46692107954095,0.073679736516339162
922.6687388661735,0.063256327878030968
923.87055665280604,0.068798635229915958
925.07237443943859,0.072445318939849346
926.27419222607114,0.072503596986365049
927.47601001270368,0.068459106007234108
928.67782779933623,0.064166727099404283
929.87964558596877,0.066197141443103347
931.08146337260132,0.072022895707995055
932.28328115923387,0.074224061448899675
933.48509894586641,0.069522929224298091
934.68691673249896,0.060973278610639566
935.8887345191315,0.059806977858982008
937.09055230576405,0.063330874029526418
938.2923700923966,0.066733649726646846
939.49418787902914,0.063649347648635668
940.69600566566169,0.055989442119328971
941.89782345229423,0.047513156494307145
943.09964123892678,0.047193763162478385
944.30145902555932,0.043111807379644498
945.50327681219187,0.037080107089883727
946.70509459882442,0.032513973619765636
947.90691238545696,0.029675823530560475
949.10873017208951,0.029892722892856206
950.31054795872205,0.031428887684479788
951.5123657453546,0.033985047722957677
952.71418353198715,0.027669437634222967
953.91600131861969,0.022874290000196966
955.11781910525224,0.023466837470200473
956.31963689188478,0.028526636587472488
957.52145467851733,0.044950531246318683
958.72327246514988,0.050095203144899444
959.92509025178242,0.032872015608936982
961.12690803841497,0.01889167837411972
962.32872582504751,0.010454074696967516
963.53054361168006,0.011603419595114808
964.73236139831261,0.021933953301492826
965.93417918494515,0.031987900954212466
967.1359969715777,0.043719564671023975
968.33781475821024,0.042879479662343047
969.53963254484279,0.037717264560931843
970.74145033147533,0.041560494404910858
971.94326811810788,0.050995333849116073
973.14508590474043,0.05296566320576112
974.34690369137297,0.04528408548132052
975.54872147800552,0.035029523444815747
976.75053926463806,0.038128265019037828
977.95235705127061,0.046310285906232436
979.15417483790316,0.046491756101137163
980.3559926245357,0.047053922666394042
981.55781041116825,0.050283774243082953
982.75962819780079,0.043774107111706248
983.96144598443334,0.032334693390556918
985.16326377106589,0.025318517044225133
986.36508155769843,0.030529958917005089
987.56689934433098,0.038037659153381448
988.76871713096352,0.035035527818382761
989.97053491759607,0.03146726732745958
991.17235270422862,0.03083625913321255
992.37417049086116,0.036715144079648064
993.57598827749371,0.043485330903417024
994.77780606412625,0.045790970935300011
995.9796238507588,0.048797491154770278
997.18144163739134,0.055088038146910712
998.38325942402389,0.064265699074136262
999.58507721065644,0.075029154964296602
1000.786894997289,0.08083245129834174
1001.9887127839215,0.080650447817933055
1003.1905305705541,0.072167414414911729
1004.3923483571866,0.068507538862955075
1005.5941661438192,0.071155144951234733
1006.7959839304517,0.073791777973745601
1007.9978017170843,0.074695283391926548
1009.1996195037168,0.069648524645454429
1010.4014372903493,0.062443136884892531
1011.6032550769819,0.059443928569234014
1012.8050728636144,0.065621327939447124
1014.006890650247,0.078246941529293026
1015.2087084368795,0.087388449654590167
1016.4105262235121,0.087477556372091675
1017.6123440101446,0.077747997613166864
1018.8141617967772,0.066680698190810073
1020.0159795834097,0.066564971095069606
1021.2177973700423,0.069417846113016615
1022.4196151566748,0.070489263026388777
1023.6214329433074,0.068692045529746268
1024.8232507299399,0.068950866171670358
1026.0250685165724,0.069658917161390665
1027.226886303205,0.079448998226313419
1028.4287040898375,0.07843909508596604
1029.6305218764701,0.07685008927150816
1030.8323396631026,0.07122458810278931
1032.0341574497352,0.060750131338706166
1033.2359752363677,0.054135806927677985
1034.4377930230003,0.056722579197805982
1035.6396108096328,0.061191818759894739
1036.8414285962654,0.06456910302856228
1038.0432463828979,0.060858144061987585
1039.2450641695305,0.055617827180907874
1040.446881956163,0.052518183412896088
1041.6486997427955,0.059098759195836091
1042.8505175294281,0.066267044077326087
1044.0523353160606,0.054263614321960224
1045.2541531026932,0.053516457317579133
1046.4559708893257,0.055177160559805385
1047.6577886759583,0.058474625339066645
1048.8596064625908,0.059122320935020525
1050.0614242492234,0.052047320227622512
1051.2632420358559,0.040335797133942392
1052.4650598224885,0.041744761147882059
1053.666877609121,0.043457346520620138
1054.8686953957535,0.044262270982662826
1056.0705131823861,0.051285726567038732
1057.2723309690186,0.063988056355711698
1058.4741487556512,0.063296863385208901
1059.6759665422837,0.053978683720373039
1060.8777843289163,0.040252929601068049
1062.0796021155488,0.034901474336614599
1063.2814199021814,0.045397817819846052
1064.4832376888139,0.057495296267081414
1065.6850554754465,0.058335426126852663
1066.886873262079,0.061289645834376932
1068.0886910487116,0.06961046899506769
1069.2905088353441,0.081092035312289104
1070.4923266219766,0.078817429133121134
1071.6941444086092,0.069062490041273211
1072.8959621952417,0.064669096977004167
1074.0977799818743,0.070986870893386719
1075.2995977685068,0.080233693088412952
1076.5014155551394,0.09252429092820047
1077.7032333417719,0.090536651374202165
1078.9050511284045,0.087374046368595054
1080.106868915037,0.079684398834338629
1081.3086867016696,0.072260643720157752
1082.5105044883021,0.073446718734667432
1083.7123222749346,0.074653516518342788
1084.9141400615672,0.072977222182212698
1086.1159578481997,0.078814731447211989
1087.3177756348323,0.087862592898844211
1088.5195934214648,0.10489754153691684
1089.7214112080974,0.12033073322682715
1090.9232289947299,0.1233633020418094
1092.1250467813625,0.1213800729113808
1093.326864567995,0.11330094884369395
1094.5286823546276,0.11573632738484603
1095.7305001412601,0.13021922570322556
1096.9323179278927,0.14547263393962828
1098.1341357145252,0.14972437667885469
1099.3359535011577,0.14205463827386119
1100.5377712877903,0.13769405752745539
1101.7395890744228,0.14319602517227725
1102.9414068610554,0.151067401486077
1104.1432246476879,0.16575306767789239
1105.3450424343205,0.17596178434664511
1106.546860220953,0.18149537526399936
1107.7486780075856,0.18400399950850435
1108.9504957942181,0.17837114008429109
1110.1523135808507,0.1752276999174843
1111.3541313674832,0.17161581050933705
1112.5559491541158,0.17031836155074265
1113.7577669407483,0.17768905962118178
1114.9595847273808,0.18519683441561527
1116.1614025140134,0.18605632040953532
1117.3632203006459,0.18154591150964447
1118.5650380872785,0.17447760060558393
1119.766855873911,0.1754583109312701
1120.9686736605436,0.1635130957885205
1122.1704914471761,0.14019106229993844
1123.3723092338087,0.11544374271568997
1124.5741270204412,0.1016428909519094
1125.7759448070738,0.10195326394682301
1126.9777625937063,0.097837887312055463
1128.1795803803388,0.085086425318453743
1129.3813981669714,0.080457580200830672
1130.5832159536039,0.078970015957371339
1131.7850337402365,0.077505322795544992
1132.986851526869,0.065705431006275031
1134.1886693135016,0.044759369235912089
1135.3904871001341,0.038845951659351216
1136.5923048867667,0.048284008898008525
1137.7941226733992,0.052156181312469019
1138.9959404600318,0.057708361616111856
1140.1977582466643,0.055045992799928153
1141.3995760332969,0.048422262854815816
1142.6013938199294,0.046677892924325795
1143.8032116065619,0.04831471826948526
1145.0050293931945,0.04524010931587627
1146.206847179827,0.046165649041620377
1147.4086649664596,0.046543588024276022
1148.6104827530921,0.047506298147722309
1149.8123005397247,0.047592069866291428
1151.0141183263572,0.047763591209672156
1152.2159361129898,0.048441096536076228
1153.4177538996223,0.054286689911784709
1154.6195716862549,0.066081491566419306
1155.8213894728874,0.071559284136472542
1157.0232072595199,0.068185754273286561
1158.2250250461525,0.061928295254149161
1159.426842832785,0.059729432697390401
1160.6286606194176,0.067702180677717563
1161.8304784060501,0.086015307278850775
1163.0322961926827,0.099751408910328257
1164.2341139793152,0.091766130426060605
1165.4359317659478,0.093542398125949222
1166.6377495525803,0.096122752319369981
1167.8395673392129,0.10178598763292647
1169.0413851258454,0.11301482263670548
1170.243202912478,0.12431504356883742
1171.4450206991105,0.1326668523058154
1172.646838485743,0.15326896543708601
1173.8486562723756,0.15580491982633377
1175.0504740590081,0.15190592637899708
1176.2522918456407,0.13818867048928729
1177.4541096322732,0.13172779176097724
1178.6559274189058,0.13569675660513875
1179.8577452055383,0.14022953245138728
1181.0595629921709,0.13271451065821849
1182.2613807788034,0.11494996535881932
1183.463198565436,0.087635217239467988
1184.6650163520685,0.075853159530536438
1185.8668341387011,0.070695134880280425
1187.0686519253336,0.064548686325669666
1188.2704697119661,0.056892493814025211
1189.4722874985987,0.050981302912220458
1190.6741052852312,0.05498584355811513
1191.8759230718638,0.072528453012521268
1193.0777408584963,0.078152377962075081
1194.2795586451289,0.073939097860374822
1195.4813764317614,0.07346291419247819
1196.683194218394,0.071012137075110893
1197.8850120050265,0.06099655726412008
1199.0868297916591,0.049546546614020477
1200.2886475782916,0.044702976470828375
1201.4904653649241,0.042735823539396672
1202.6922831515567,0.038961300766607053
1203.8941009381892,0.032422292816025461
1205.0959187248218,0.042775221822204855
1206.2977365114543,0.055074523783032417
1207.4995542980869,0.059337517677794493
1208.7013720847194,0.052935253166565485
1209.903189871352,0.04979688687230921
1211.1050076579845,0.056413281553542395
1212.3068254446171,0.063016810998048928
1213.5086432312496,0.066934636555101984
1214.7104610178822,0.071203536851711727
1215.9122788045147,0.071082401572438406
1217.1140965911472,0.076814607226552437
1218.3159143777798,0.083277063915597305
1219.5177321644123,0.085175478667529836
1220.7195499510449,0.09340679094353245
1221.9213677376774,0.091813032115482029
1223.12318552431,0.08619976576858436
1224.3250033109425,0.083748724665377527
1225.5268210975751,0.086898074324902083
1226.7286388842076,0.095169156947467401
1227.9304566708402,0.10531428171759134
1229.1322744574727,0.10528775484747478
1230.3340922441052,0.098608637765377011
1231.5359100307378,0.094896077276561394
1232.7377278173703,0.097255387235972643
1233.9395456040029,0.095389573443037876
1235.1413633906354,0.10415640381340645
1236.343181177268,0.11582916172433368
1237.5449989639005,0.12479931469179963
1238.7468167505331,0.1324794690645372
1239.9486345371656,0.13920148202842947
1241.1504523237982,0.1445465371527242
1242.3522701104307,0.15347058485667564
1243.5540878970633,0.15802281301134427
1244.7559056836958,0.16341751501035581
1245.9577234703283,0.16783398643136835
1247.1595412569609,0.18052734956622715
1248.3613590435934,0.19627555309289732
1249.563176830226,0.2065963078720823
1250.7649946168585,0.21016690496622958
1251.9668124034911,0.21087902138771125
1253.1686301901236,0.20838265834416606
1254.3704479767562,0.21315043269111655
1255.5722657633887,0.21447445746918803
1256.7740835500213,0.22977931860582437
1257.9759013366538,0.25111345060234591
1259.1777191232864,0.26659290270691244
1260.3795369099189,0.26638946260743579
1261.5813546965514,0.26242554827190134
1262.783172483184,0.27094725320169832
1263.9849902698165,0.28638162637220821
1265.1868080564491,0.2910061879387742
1266.3886258430816,0.29637448046581671
1267.5904436297142,0.30098008947983029
1268.7922614163467,0.30767429865707407
1269.9940792029793,0.33093085122261628
1271.1958969896118,0.35431032741529472
1272.3977147762444,0.37476098959854254
1273.5995325628769,0.39636955702513454
1274.8013503495094,0.40677030647311374
1276.003168136142,0.41631520697761443
1277.2049859227745,0.42597472875146219
1278.4068037094071,0.43739517745873613
1279.6086214960396,0.44372528205708811
1280.8104392826722,0.44887615450061724
1282.0122570693047,0.44225104387374292
1283.2140748559373,0.433644643347118
1284.4158926425698,0.43290469637936058
1285.6177104292024,0.43713486849214284
1286.8195282158349,0.42571237148350238
1288.0213460024675,0.41576636828664676
1289.2231637891,0.39691585575874927
1290.4249815757325,0.38391606716334414
1291.6267993623651,0.36524731091158125
1292.8286171489976,0.33849325560824173
1294.0304349356302,0.31751233249048089
1295.2322527222627,0.30042343530828935
1296.4340705088953,0.29076848595054389
1297.6358882955278,0.27926078430600265
1298.8377060821604,0.25072027331103219
1300.0395238687929,0.2368543692230986
1301.2413416554255,0.2441213183329814
1302.443159442058,0.26029073194529218
1303.6449772286905,0.2681859545413311
1304.8467950153231,0.25476602709751978
1306.0486128019556,0.24373188792305603
1307.2504305885882,0.24071982856342244
1308.4522483752207,0.24136332335733721
1309.6540661618533,0.240587226828298
1310.8558839484858,0.23228187240795059
1312.0577017351184,0.22055122221609569
1313.2595195217509,0.21766509316851901
1314.4613373083835,0.2134753738189491
1315.663155095016,0.21235539798726932
1316.8649728816486,0.20793204560004638
1318.0667906682811,0.19461049543630346
1319.2686084549136,0.18538641598577321
1320.4704262415462,0.18582609511999809
1321.6722440281787,0.18094508537591697
1322.8740618148113,0.17738602513931051
1324.0758796014438,0.17663324442125836
1325.2776973880764,0.1718107750834241
1326.4795151747089,0.16640954701583854
1327.6813329613415,0.16193694420579186
1328.883150747974,0.15717683479976563
1330.0849685346066,0.15406253068938772
1331.2867863212391,0.15201677431001642
1332.4886041078717,0.15405732867231103
1333.6904218945042,0.14540180925930196
1334.8922396811367,0.12960637495262747
1336.0940574677693,0.12807445781914881
1337.2958752544018,0.13687549233998009
1338.4976930410344,0.146961658317982
1339.6995108276669,0.1465365310327279
1340.9013286142995,0.13127270136946617
1342.103146400932,0.13113861471704294
1343.3049641875646,0.13483223424731447
1344.5067819741971,0.13360285450911411
1345.7085997608297,0.13105168602140613
1346.9104175474622,0.13682248345431061
1348.1122353340947,0.14950515888481275
1349.3140531207273,0.14981777879745364
1350.5158709073598,0.1431846564006547
1351.7176886939924,0.14520178352514299
1352.9195064806249,0.15230325761002822
1354.1213242672575,0.16154045951372004
1355.32314205389,0.14957073234665735
1356.5249598405226,0.12578436653726616
1357.7267776271551,0.1069575355847092
1358.9285954137877,0.105543858177697
1360.1304132004202,0.10712984063048868
1361.3322309870528,0.10838588327563607
1362.5340487736853,0.11455624039684022
1363.7358665603178,0.12501533885488703
1364.9376843469504,0.12540372750112913
1366.1395021335829,0.12165327854176214
1367.3413199202155,0.11743733596256187
1368.543137706848,0.12426258615479127
1369.7449554934806,0.1260644435376069
1370.9467732801131,0.11787005462392584
1372.1485910667457,0.10885959226944263
1373.3504088533782,0.1170927169620754
1374.5522266400108,0.12371003678130625
1375.7540444266433,0.12105313121757756
1376.9558622132759,0.11281707476401995
1378.1576799999084,0.10723827017932944
1379.3594977865409,0.10618526563928617
1380.5613155731735,0.10895520461938138
1381.763133359806,0.10875873382851646
1382.9649511464386,0.114411438471822
1384.1667689330711,0.12402162775094434
1385.3685867197037,0.12313639764099613
1386.5704045063362,0.11585641849618765
1387.7722222929688,0.098343378473393098
1388.9740400796013,0.089801421002067713
1390.1758578662339,0.098554107543024988
1391.3776756528664,0.11334673916358129
1392.5794934394989,0.11195502828088535
1393.7813112261315,0.10396460314190206
1394.983129012764,0.094490798275223567
1396.1849467993966,0.092415333886736339
1397.3867645860291,0.097449067410522172
1398.5885823726617,0.093406310734877374
1399.7904001592942,0.093793908797242448
1400.9922179459268,0.10594484520866616
1402.1940357325593,0.11146687773271834
1403.3958535191919,0.11023699265954415
1404.5976713058244,0.10882186205038352
1405.799489092457,0.10770116474197725
1407.0013068790895,0.12307808313441089
1408.203124665722,0.12945324519250179
1409.4049424523546,0.13104117687952613
1410.6067602389871,0.13278863183790851
1411.8085780256197,0.12366624352079739
1413.0103958122522,0.1170579044294503
1414.2122135988848,0.10913774410187947
1415.4140313855173,0.095696809737309096
1416.6158491721499,0.088731982768411044
1417.8176669587824,0.076057987809995106
1419.019484745415,0.068463801987074524
1420.2213025320475,0.07535474265058105
1421.42312031868,0.082140598822517147
1422.6249381053126,0.074529330875495778
1423.8267558919451,0.061807182489835563
1425.0285736785777,0.050440824759262669
1426.2303914652102,0.04895934046778648
1427.4322092518428,0.060859146508106823
1428.6340270384753,0.06002768465272236
1429.8358448251079,0.056029530296486864
1431.0376626117404,0.058752994435766273
1432.239480398373,0.061325049017595258
1433.4412981850055,0.061570845702808748
1434.6431159716381,0.066521393806600618
1435.8449337582706,0.075601419843156034
1437.0467515449031,0.096499058906364968
1438.2485693315357,0.11277445888247693
1439.4503871181682,0.12058782294667228
1440.6522049048008,0.12302467081355539
1441.8540226914333,0.12483144450322003
1443.0558404780659,0.11650188029654256
1444.2576582646984,0.10777948100233166
1445.459476051331,0.11008237656599341
1446.6612938379635,0.12251805072340907
1447.8631116245961,0.13453199717166711
1449.0649294112286,0.13165962252755997
1450.2667471978612,0.11497169298331887
1451.4685649844937,0.10238546810961356
1452.6703827711262,0.10161023106721888
1453.8722005577588,0.10887300045466128
1455.0740183443913,0.11538047453589904
1456.2758361310239,0.11836336531019094
1457.4776539176564,0.11775866382586714
1458.679471704289,0.10734479444158249
1459.8812894909215,0.098080090276254125
1461.0831072775541,0.088626840404398569
1462.2849250641866,0.087247990177656581
1463.4867428508192,0.092446696323895419
1464.6885606374517,0.092347212721332672
1465.8903784240842,0.084709607695569886
1467.0921962107168,0.080451057739849507
1468.2940139973493,0.074080798414157864
1469.4958317839819,0.070500928872425012
1470.6976495706144,0.068789844211416679
1471.899467357247,0.071115841820691764
1473.1012851438795,0.079727601855768063
1474.3031029305121,0.081617742285264042
1475.5049207171446,0.077008921647746045
1476.7067385037772,0.061986090450982051
1477.9085562904097,0.052395981328207747
1479.1103740770423,0.048620685927302169
1480.3121918636748,0.049225371090914162
1481.5140096503073,0.052206693405436148
1482.7158274369399,0.058747363488350086
1483.9176452235724,0.058957362092935034
1485.119463010205,0.058942535755965211
1486.3212807968375,0.05430394591306302
1487.5230985834701,0.052655924221745892
1488.7249163701026,0.051995778300077809
1489.9267341567352,0.043982932796097218
1491.1285519433677,0.03784631709730911
1492.3303697300003,0.041320976330477668
1493.5321875166328,0.049548495857695052
1494.7340053032653,0.0498441534670769
1495.9358230898979,0.043123877755435636
1497.1376408765304,0.035527667806459502
1498.339458663163,0.040403816643153741
1499.5412764497955,0.048690229128614544
1500.7430942364281,0.042893812885055949
1501.9449120230606,0.026838513469680587
1503.1467298096932,0.022210995394176591
1504.3485475963257,0.022404093329947375
1505.5503653829583,0.039275893112088872
1506.7521831695908,0.045864442033195459
1507.9540009562234,0.047666968600871593
1509.1558187428559,0.042247953647264157
1510.3576365294884,0.035176283102628478
1511.559454316121,0.030605760329928511
1512.7612721027535,0.040389570286726677
1513.9630898893861,0.047985844180691392
1515.1649076760186,0.058772446802173403
1516.3667254626512,0.053826112821410962
1517.5685432492837,0.046178164959797832
1518.7703610359163,0.038719330560965257
1519.9721788225488,0.033874273015559835
1521.1739966091814,0.030000106648511691
1522.3758143958139,0.036446596431795798
1523.5776321824465,0.037733169817206313
1524.779449969079,0.036360811322818425
1525.9812677557115,0.036370026218315622
1527.1830855423441,0.048531903531806954
1528.3849033289766,0.047110148756598864
1529.5867211156092,0.039176702330810616
1530.7885389022417,0.02292811865447995
1531.9903566888743,0.022642536923820119
1533.1921744755068,0.038366185668768774
1534.3939922621394,0.052536224327071057
1535.5958100487719,0.043107914547505774
1536.7976278354045,0.036688184340409567
1537.999445622037,0.034057872995291859
1539.2012634086695,0.040647636200665013
1540.4030811953021,0.042799974292941544
1541.6048989819346,0.041258526732029496
1542.8067167685672,0.044545088293349265
1544.0085345551997,0.045565505272034075
1545.2103523418323,0.047318593617888531
1546.4121701284648,0.053052190627445733
1547.6139879150974,0.052061048451807174
1548.8158057017299,0.062453973140406648
1550.0176234883625,0.067187236599321146
1551.219441274995,0.059623262548262078
1552.4212590616276,0.057142879754284857
1553.6230768482601,0.060516403509650117
1554.8248946348926,0.064703623884518419
1556.0267124215252,0.072812713981556448
1557.2285302081577,0.068825113883593664
1558.4303479947903,0.060201419402063819
1559.6321657814228,0.058463271753467883
1560.8339835680554,0.059807432952056094
1562.0358013546879,0.059464224600823998
1563.2376191413205,0.066656374748723199
1564.439436927953,0.074894743913861472
1565.6412547145856,0.079777302266848135
1566.8430725012181,0.08221454588243933
1568.0448902878506,0.077703867251843473
1569.2467080744832,0.075911445436008376
1570.4485258611157,0.0795397420503587
1571.6503436477483,0.077841236141386341
1572.8521614343808,0.081239539328167354
1574.0539792210134,0.087180414636140346
1575.2557970076459,0.089292604740288647
1576.4576147942785,0.094545800231298521
1577.659432580911,0.10085672975242201
1578.8612503675436,0.10587679016039342
1580.0630681541761,0.11143609549119957
1581.2648859408087,0.10843949387005836
1582.4667037274412,0.10537252104549374
1583.6685215140737,0.11310613960852522
1584.8703393007063,0.11419859294954378
1586.0721570873388,0.1185035475937372
1587.2739748739714,0.12486028194138839
1588.4757926606039,0.12376309808745313
1589.6776104472365,0.11829316897882403
1590.879428233869,0.11995508337741602
1592.0812460205016,0.12668974339643735
1593.2830638071341,0.15385908736507703
1594.4848815937667,0.17637583635956047
1595.6866993803992,0.18747810212459509
1596.8885171670318,0.19215719263267012
1598.0903349536643,0.20460458336286097
1599.2921527402968,0.23237895358534036
1600.4939705269294,0.27768405713752409
1601.6957883135619,0.32207758141538378
1602.8976061001945,0.36883579871894084
1604.099423886827,0.42084368189592825
1605.3012416734596,0.48249671554188112
1606.5030594600921,0.56585064749201242
1607.7048772467247,0.66453478621070849
1608.9066950333572,0.76923525137713988
1610.1085128199898,0.87760860511036665
1611.3103306066223,0.95810594822294726
1612.5121483932548,0.98444511320546835
1613.7139661798874,0.96607494177129771
1614.9157839665199,0.89176745261141344
1616.1176017531525,0.77799710795746002
1617.319419539785,0.64390104471639176
1618.5212373264176,0.49630015113560799
1619.7230551130501,0.37803655687600257
1620.9248728996827,0.30732697778070539
1622.1266906863152,0.2614561572422831
1623.3285084729478,0.21845496208551943
1624.5303262595803,0.16740509789711944
1625.7321440462129,0.12807383432084221
1626.9339618328454,0.12084495415329895
1628.1357796194779,0.12361410759208924
1629.3375974061105,0.11985747995638761
1630.539415192743,0.10489692995721678
1631.7412329793756,0.093210435367812774
1632.9430507660081,0.079962334490195061
1634.1448685526407,0.077749102621702981
1635.3466863392732,0.077657389682189173
1636.5485041259058,0.073423569182994225
1637.7503219125383,0.074379948405513249
1638.9521396991709,0.070923718429014654
1640.1539574858034,0.067403787291916095
1641.3557752724359,0.064553958056163666
1642.5575930590685,0.058807310662614305
1643.759410845701,0.062138511495921811
1644.9612286323336,0.072022316403093811
1646.1630464189661,0.077681204757532318
1647.3648642055987,0.073373696651134357
1648.5666819922312,0.067886898595302392
1649.7684997788638,0.064020949032023225
1650.9703175654963,0.058434054360344483
1652.1721353521289,0.05886524172311261
1653.3739531387614,0.064130786908262197
1654.575770925394,0.064490246357882391
1655.7775887120265,0.072141850654278764
1656.979406498659,0.076109210248556852
1658.1812242852916,0.080917865069084369
1659.3830420719241,0.083560981988091754
1660.5848598585567,0.077360943830837567
1661.7866776451892,0.069344599825147346
1662.9884954318218,0.072003874032787282
1664.1903132184543,0.075760688547061361
1665.3921310050869,0.062199327629086462
1666.5939487917194,0.052261307424772724
1667.795766578352,0.043774895997149017
1668.9975843649845,0.051022364077754054
1670.1994021516171,0.071703235711314664
1671.4012199382496,0.07995444058514925
1672.6030377248821,0.066065405743386263
1673.8048555115147,0.055519722930361941
1675.0066732981472,0.047427496322226634
1676.2084910847798,0.047965086010047585
1677.4103088714123,0.048362517630677886
1678.6121266580449,0.057821403030383488
1679.8139444446774,0.075865687102051313
1681.01576223131,0.08969956711778905
1682.2175800179425,0.087976329625821137
1683.4193978045751,0.076992154547171107
1684.6212155912076,0.070777791118255343
1685.8230333778401,0.072096498163477185
1687.0248511644727,0.069185841141593582
1688.2266689511052,0.06520782630087725
1689.4284867377378,0.064946532233793236
1690.6303045243703,0.064962343306028264
1691.8321223110029,0.06549263659988637
1693.0339400976354,0.068924327086567705
1694.235757884268,0.076988080888905797
1695.4375756709005,0.079969960295973724
1696.6393934575331,0.078347759660955155
1697.8412112441656,0.075511028997356316
1699.0430290307982,0.072990992705730368
1700.2448468174307,0.077779005460407516
1701.4466646040632,0.085343968328938882
1702.6484823906958,0.078796792264042625
1703.8503001773283,0.080363417641528129
1705.0521179639609,0.083827554463955026
1706.2539357505934,0.10529425145325871
1707.455753537226,0.12438025903338942
1708.6575713238585,0.14502489089330364
1709.8593891104911,0.15722271497821894
1711.0612068971236,0.18452428947961527
1712.2630246837562,0.21167515036359877
1713.4648424703887,0.25134419008382514
1714.6666602570212,0.27863932092608051
1715.8684780436538,0.31320701093820896
1717.0702958302863,0.33824995503828192
1718.2721136169189,0.365691512653326
1719.4739314035514,0.39114808815063296
1720.675749190184,0.41123248336870294
1721.8775669768165,0.42289030496818575
1723.0793847634491,0.43298339047291518
1724.2812025500816,0.43939128883411627
1725.4830203367142,0.44396875768939037
1726.6848381233467,0.44329698369419984
1727.8866559099793,0.4394387227268835
1729.0884736966118,0.44335514081665517
1730.2902914832443,0.43162368491172504
1731.4921092698769,0.40979321740727093
1732.6939270565094,0.38655204368194829
1733.895744843142,0.36562920077097277
1735.0975626297745,0.34731847493201334
1736.2993804164071,0.3208987174086837
1737.5011982030396,0.29331514341274512
1738.7030159896722,0.2725092183597615
1739.9048337763047,0.25288946576176274
1741.1066515629373,0.22932295656302695
1742.3084693495698,0.1968353289923459
1743.5102871362024,0.16969047318668409
1744.7121049228349,0.15359783985884856
1745.9139227094674,0.15045153063932762
1747.1157404961,0.14145016496036328
1748.3175582827325,0.12499630309369195
1749.5193760693651,0.10709435011935182
1750.7211938559976,0.09705059962961915
1751.9230116426302,0.10247318090126152
1753.1248294292627,0.11002744036762654
1754.3266472158953,0.10466952442023453
1755.5284650025278,0.10172023185319322
1756.7302827891604,0.1054158646209952
1757.9321005757929,0.098871194380191388
1759.1339183624254,0.092750086382597144
1760.335736149058,0.081608365988663084
1761.5375539356905,0.078062409288821105
1762.7393717223231,0.071543211820576269
1763.9411895089556,0.079057666401594937
1765.1430072955882,0.084843283373190803
1766.3448250822207,0.087496705710908104
1767.5466428688533,0.077266211008761534
1768.7484606554858,0.071729021751937655
1769.9502784421184,0.068190481022596589
1771.1520962287509,0.067642010430998087
1772.3539140153835,0.057577692861365125
1773.555731802016,0.041836368043754339
1774.7575495886485,0.043420910533996993
1775.9593673752811,0.059183167492850325
1777.1611851619136,0.062257009738149398
1778.3630029485462,0.05916221021706719
1779.5648207351787,0.053546708263696251
1780.7666385218113,0.05311178612613178
1781.9684563084438,0.067369435116233542
1783.1702740950764,0.069867842078464679
1784.3720918817089,0.06313990404494943
1785.5739096683415,0.052493245185301012
1786.775727454974,0.045535455020521386
1787.9775452416065,0.049788896046621733
1789.1793630282391,0.05708721348462046
1790.3811808148716,0.059405766446860707
1791.5829986015042,0.066794743841988316
1792.7848163881367,0.063713188671812915
1793.9866341747693,0.061907808168562131
1795.1884519614018,0.057735927846017825
1796.3902697480344,0.053885441995785849
1797.5920875346669,0.055856978956605512
1798.7939053212995,0.065098369993638605
1799.995723107932,0.069167949565376113
1801.1975408945646,0.071684637604893631
1802.3993586811971,0.066765773561911226
1803.6011764678296,0.055423567907275255
1804.8029942544622,0.052712177044998212
1806.0048120410947,0.055670095744698278
1807.2066298277273,0.052957974695492994
1808.4084476143598,0.048323149636052817
1809.6102654009924,0.043451309950615948
1810.8120831876249,0.037960375423274635
1812.0139009742575,0.043606892099277844
1813.21571876089,0.051558681094025567
1814.4175365475226,0.056889445116476832
1815.6193543341551,0.061478286917228134
1816.8211721207877,0.061671140380952685
1818.0229899074202,0.061234427516864087
1819.2248076940527,0.06601760270268206
1820.4266254806853,0.065965700376023395
1821.6284432673178,0.05749742456772685
1822.8302610539504,0.053824423324306508
1824.0320788405829,0.056474682640616246
1825.2338966272155,0.058380342173908785
1826.435714413848,0.056671902050859521
1827.6375322004806,0.049934755259546909
1828.8393499871131,0.054804266045060064
1830.0411677737457,0.064144180785928165
1831.2429855603782,0.062814625808842464
1832.4448033470107,0.055478741163871408
1833.6466211336433,0.053171700408503553
1834.8484389202758,0.060133175332439809
1836.0502567069084,0.067189107050917379
1837.2520744935409,0.063714557427959978
1838.4538922801735,0.055252717076820224
1839.655710066806,0.046408984142498277
1840.8575278534386,0.043873626148519675
1842.0593456400711,0.045141052974562355
1843.2611634267037,0.048382737328261288
1844.4629812133362,0.054732411181174515
1845.6647989999688,0.057683997731428349
