200.7559923,0.18913446855963506
201.83579647588758,0.1893678665950394
202.91560065177515,0.18720010487835134
203.99540482766272,0.18192636396251016
205.0752090035503,0.17495358511887793
206.15501317943787,0.16939475717931676
207.23481735532545,0.1668093048759994
208.31462153121302,0.16308588758862674
209.39442570710059,0.15765591154223574
210.47422988298817,0.15312135657306913
211.55403405887574,0.1505515803063894
212.63383823476332,0.1493322650779092
213.71364241065089,0.14692140625690583
214.79344658653847,0.14234109806438439
215.87325076242604,0.13823284531681479
216.95305493831361,0.13408369360845601
218.03285911420119,0.13092133358501495
219.11266329008876,0.12954283561636862
220.19246746597634,0.12775111385768659
221.27227164186391,0.12549402139429505
222.35207581775148,0.12255338340178276
223.43187999363906,0.12125657656554968
224.51168416952663,0.1206670217680956
225.59148834541421,0.11770148884750396
226.67129252130178,0.11513117143908948
227.75109669718935,0.11165612999943329
228.83090087307693,0.10672513817997635
229.9107050489645,0.10291689697176576
230.99050922485208,0.10029260068800036
232.07031340073965,0.099940033084316773
233.15011757662722,0.10098165457489586
234.2299217525148,0.095663054357105801
235.30972592840237,0.087062012848900971
236.38953010428995,0.079724328468658581
237.46933428017752,0.075166910171935497
238.54913845606509,0.07368117580452975
239.62894263195267,0.072426641365432198
240.70874680784024,0.069078057229418816
241.78855098372782,0.067121829688488385
242.86835515961539,0.066224645229111992
243.94815933550296,0.065186026224331964
245.02796351139054,0.06374315333220601
246.10776768727811,0.060644277987098025
247.18757186316569,0.057566288389818802
248.26737603905326,0.054859928922436837
249.34718021494083,0.049986620857409438
250.42698439082841,0.045523108862114164
251.50678856671598,0.044127326750699122
252.58659274260356,0.042745221463840001
253.66639691849113,0.040732142083464797
254.7462010943787,0.03702180380794641
255.82600527026628,0.031553791498657696
256.90580944615385,0.028046452194615303
257.98561362204146,0.026655406331531774
259.06541779792906,0.025254065493792041
260.14522197381666,0.025201564347836852
261.22502614970426,0.025826597589502322
262.30483032559187,0.026069522913022565
263.38463450147947,0.025688232995430244
264.46443867736707,0.024444786445886664
265.54424285325467,0.024415279775194421
266.62404702914228,0.023686764150632374
267.70385120502988,0.019945290485821453
268.78365538091748,0.015240905877032069
269.86345955680508,0.012488884975908346
270.94326373269269,0.013901320914999378
272.02306790858029,0.018054712470122272
273.10287208446789,0.019532381810642645
274.18267626035549,0.017759726604847124
275.2624804362431,0.013480245983475884
276.3422846121307,0.0086993190116893375
277.4220887880183,0.0067565265303068424
278.5018929639059,0.0074848630605665357
279.5816971397935,0.0096655514686273657
280.66150131568111,0.011474567204079888
281.74130549156871,0.012320153487152079
282.82110966745631,0.01393146407304173
283.90091384334391,0.016080812513640064
284.98071801923152,0.015455908191899924
286.06052219511912,0.012625092668440601
287.14032637100672,0.010205922348310009
288.22013054689432,0.0095282236732998331
289.29993472278193,0.010194543567679988
290.37973889866953,0.010835606995563974
291.45954307455713,0.011186277286639859
292.53934725044473,0.013194090738428615
293.61915142633234,0.015954494753795699
294.69895560221994,0.018036066732804595
295.77875977810754,0.019550531638412482
296.85856395399514,0.02207131253389254
297.93836812988275,0.02450287852800484
299.01817230577035,0.025598651120542364
300.09797648165795,0.025571079322347229
301.17778065754555,0.026598729304504388
302.25758483343316,0.028633802526200913
303.33738900932076,0.029476432860531435
304.41719318520836,0.028879217483632622
305.49699736109596,0.029173137960755147
306.57680153698357,0.030685760677040538
307.65660571287117,0.033984863384458948
308.73640988875877,0.03659287725121102
309.81621406464637,0.036403489614888575
310.89601824053398,0.035789579291188478
311.97582241642158,0.035099478308710574
313.05562659230918,0.033961698960776859
314.13543076819678,0.033824409522300855
315.21523494408439,0.032219176616920822
316.29503911997199,0.026850733785753911
317.37484329585959,0.024572961322995777
318.45464747174719,0.026802066319285937
319.5344516476348,0.030563151526108494
320.6142558235224,0.031082064933532008
321.69405999941,0.026108034410107655
322.7738641752976,0.021676487160170909
323.85366835118521,0.021392638593316509
324.93347252707281,0.021093723770106081
326.01327670296041,0.018698104447994624
327.09308087884801,0.015333917575526287
328.17288505473562,0.013863121662043633
329.25268923062322,0.013492481602277364
330.33249340651082,0.010796026488591704
331.41229758239842,0.007960648754203669
332.49210175828603,0.0071844985256435626
333.57190593417363,0.0058727119697720726
334.65171011006123,0.0048793710552942036
335.73151428594883,0.0069702368923398768
336.81131846183644,0.01103052635658878
337.89112263772404,0.015383191180184129
338.97092681361164,0.017274148035195998
340.05073098949924,0.017080397680919943
341.13053516538685,0.020220109963990939
342.21033934127445,0.026437817839541834
343.29014351716205,0.030664538939040465
344.36994769304965,0.033274155313689775
345.44975186893726,0.036711634040149752
346.52955604482486,0.04330171499629569
347.60936022071246,0.051305249072356056
348.68916439660006,0.057650407002417199
349.76896857248767,0.062829160712083942
350.84877274837527,0.069252239798101023
351.92857692426287,0.076677829751695015
353.00838110015047,0.085588234736248894
354.08818527603808,0.094927485211489041
355.16798945192568,0.10415117042428206
356.24779362781328,0.11294499008467239
357.32759780370088,0.12014754985989136
358.40740197958849,0.12797780887003571
359.48720615547609,0.13862692561021916
360.56701033136369,0.14854624045404735
361.64681450725129,0.15491271739461845
362.72661868313889,0.15938197722839514
363.8064228590265,0.16525807817327484
364.8862270349141,0.17342156207190254
365.9660312108017,0.1814103677720304
367.0458353866893,0.18702133733387943
368.12563956257691,0.19109715999616594
369.20544373846451,0.19470348990441805
370.28524791435211,0.19516326649382038
371.36505209023971,0.19257931081218221
372.44485626612732,0.19020711646991834
373.52466044201492,0.18984941994729523
374.60446461790252,0.19046129193472158
375.68426879379012,0.19105562143217744
376.76407296967773,0.18836422768678684
377.84387714556533,0.18421232847140009
378.92368132145293,0.18129492176363465
380.00348549734053,0.17884529425916545
381.08328967322814,0.17702882289043098
382.16309384911574,0.17485172488697964
383.24289802500334,0.17374113872644376
384.32270220089094,0.17565244491531279
385.40250637677855,0.17849437276340444
386.48231055266615,0.18013299385446208
387.56211472855375,0.1808851497230721
388.64191890444135,0.18190226840452048
389.72172308032896,0.18389609751418134
390.80152725621656,0.1862469296980242
391.88133143210416,0.19051743956454256
392.96113560799176,0.1934719854547447
394.04093978387937,0.19639024529345886
395.12074395976697,0.20087796613537071
396.20054813565457,0.20465818876914338
397.28035231154217,0.20804777646183018
398.36015648742978,0.21011372668619077
399.43996066331738,0.21111142241671049
400.51976483920498,0.21516598066361742
401.59956901509258,0.21929314191551463
402.67937319098019,0.22036465146669262
403.75917736686779,0.21906646210571698
404.83898154275539,0.21650852748239277
405.91878571864299,0.21523799732232179
406.9985898945306,0.21587225927476858
408.0783940704182,0.21691403767753833
409.1581982463058,0.21624171149008142
410.2380024221934,0.21131907438523564
411.31780659808101,0.20557882755282469
412.39761077396861,0.2033411756898775
413.47741494985621,0.20508859357966452
414.55721912574381,0.20803010651916198
415.63702330163142,0.20756761737346352
416.71682747751902,0.20173844635312618
417.79663165340662,0.19445101433868009
418.87643582929422,0.18827150929741665
419.95624000518183,0.18700009072821586
421.03604418106943,0.18749266362855935
422.11584835695703,0.1855037982323966
423.19565253284463,0.1802167348177231
424.27545670873224,0.17391309888935613
425.35526088461984,0.16979463772166956
426.43506506050744,0.16742280602700052
427.51486923639504,0.16277580448147316
428.59467341228265,0.15710298168225764
429.67447758817025,0.15301442901018156
430.75428176405785,0.14775443975408981
431.83408593994545,0.14031808147868258
432.91389011583306,0.13217588189844007
433.99369429172066,0.12787342927728956
435.07349846760826,0.12809009996921872
436.15330264349586,0.12851188192478677
437.23310681938347,0.12285883682238827
438.31291099527107,0.11472150080707515
439.39271517115867,0.10846252734044771
440.47251934704627,0.10743415127273566
441.55232352293388,0.11002715705780296
442.63212769882148,0.11196218692420609
443.71193187470908,0.10796514180643764
444.79173605059668,0.1021543860857901
445.87154022648429,0.09853496518349579
446.95134440237189,0.097693582978199661
448.03114857825949,0.09781750992414974
449.11095275414709,0.096642723507464057
450.19075693003469,0.093806938506858339
451.2705611059223,0.094642086144049301
452.3503652818099,0.097751571241599208
453.4301694576975,0.099676668614521569
454.5099736335851,0.10142808657658633
455.58977780947271,0.10414879420608099
456.66958198536031,0.10814366645309238
457.74938616124791,0.11254995095674387
458.82919033713551,0.11493332070779647
459.90899451302312,0.11478386457879194
460.98879868891072,0.1179341213414465
462.06860286479832,0.12392484550674501
463.14840704068592,0.12980624096367938
464.22821121657353,0.13404372246050364
465.30801539246113,0.13754976081851869
466.38781956834873,0.14234291369036461
467.46762374423633,0.14981377472097188
468.54742792012394,0.15643042444637015
469.62723209601154,0.16223632819032582
470.70703627189914,0.16812338633502455
471.78684044778674,0.17520686312983552
472.86664462367435,0.18296891164779258
473.94644879956195,0.1900022905816087
475.02625297544955,0.19585268680682777
476.10605715133715,0.19953864592513743
477.18586132722476,0.20072002184083648
478.26566550311236,0.20303219817462292
479.34546967899996,0.20638533698149858
480.42527385488756,0.20982795337108753
481.50507803077517,0.21229368184224345
482.58488220666277,0.21158706804727001
483.66468638255037,0.20824524154035171
484.74449055843797,0.20439356648360762
485.82429473432558,0.19970559829554402
486.90409891021318,0.19520897673966159
487.98390308610078,0.19080271985147618
489.06370726198838,0.18683794806286674
490.14351143787599,0.18274921023705279
491.22331561376359,0.17661125721914928
492.30311978965119,0.16655829035340664
493.38292396553879,0.15439555394514368
494.4627281414264,0.14385546784386702
495.542532317314,0.13692714661529706
496.6223364932016,0.13222685428938585
497.7021406690892,0.12765358061044685
498.78194484497681,0.12141336174092615
499.86174902086441,0.1156341873526925
500.94155319675201,0.11068938001172726
502.02135737263961,0.10582915529893243
503.10116154852722,0.10081914920028151
504.18096572441482,0.095643552517785266
505.26076990030242,0.091568947056057115
506.34057407619002,0.089162082399861967
507.42037825207763,0.087265362268415345
508.50018242796523,0.085367075086513977
509.57998660385283,0.08389505040998671
510.65979077974043,0.082778767054307506
511.73959495562804,0.081252656545840921
512.81939913151564,0.078366648498303035
513.89920330740324,0.077149064546353563
514.97900748329084,0.078606377256349544
516.05881165917845,0.080488968292470972
517.13861583506605,0.079105134746302264
518.21842001095365,0.075217592769780961
519.29822418684125,0.072686467785372133
520.37802836272886,0.073702073387316935
521.45783253861646,0.074155469768749441
522.53763671450406,0.070992595425394073
523.61744089039166,0.067749850244571502
524.69724506627927,0.066996983773024987
525.77704924216687,0.06720881886484438
526.85685341805447,0.065963069850873121
527.93665759394207,0.059802797777216171
529.01646176982968,0.05248220981999574
530.09626594571728,0.050263367592523867
531.17607012160488,0.05086209460085292
532.25587429749248,0.051087041365741867
533.33567847338009,0.047607932596446849
534.41548264926769,0.04109090808278363
535.49528682515529,0.034746049087294256
536.57509100104289,0.029739075963255205
537.65489517693049,0.026916573490483826
538.7346993528181,0.025060297568686773
539.8145035287057,0.023893307819110934
540.8943077045933,0.024778436688464633
541.9741118804809,0.023730839983283757
543.05391605636851,0.022227222409471972
544.13372023225611,0.022030795348559326
545.21352440814371,0.018478964110718907
546.29332858403131,0.01435529727606131
547.37313275991892,0.011864409417262264
548.45293693580652,0.010528582861626251
549.53274111169412,0.012304619581842534
550.61254528758172,0.014766908714651882
551.69234946346933,0.012262425299157468
552.77215363935693,0.0091760593791536064
553.85195781524453,0.0077561224144761078
554.93176199113213,0.0096300499924524604
556.01156616701974,0.01350439075787486
557.09137034290734,0.014617244928090474
558.17117451879494,0.011143584390275907
559.25097869468254,0.010242498678044025
560.33078287057015,0.012740156011498402
561.41058704645775,0.01708817298851013
562.49039122234535,0.019247976000488932
563.57019539823295,0.018359439924709203
564.64999957412056,0.017447543375978005
565.72980375000816,0.019079609997356181
566.80960792589576,0.023148152182260361
567.88941210178336,0.027478678353650449
568.96921627767097,0.029485177644241557
570.04902045355857,0.030788345077015358
571.12882462944617,0.031941872130020303
572.20862880533377,0.033756330029835961
573.28843298122138,0.03691678487672314
574.36823715710898,0.040264630769591074
575.44804133299658,0.044252397776895325
576.52784550888418,0.047907274224230495
577.60764968477179,0.050357088127122376
578.68745386065939,0.053465535655739437
579.76725803654699,0.058461374412475647
580.84706221243459,0.064374164630413275
581.9268663883222,0.068465421539614352
583.0066705642098,0.070772247010278649
584.0864747400974,0.074023648163389563
585.166278915985,0.078633017037490344
586.24608309187261,0.083366036980289188
587.32588726776021,0.08657137015583545
588.40569144364781,0.090871624671564316
589.48549561953541,0.097321944042697117
590.56529979542302,0.10506136555296521
591.64510397131062,0.1119055095114302
592.72490814719822,0.11653681156690375
593.80471232308582,0.12005599253566702
594.88451649897343,0.12571472910732975
595.96432067486103,0.13331593013698156
597.04412485074863,0.14159653917010484
598.12392902663623,0.14870528306504893
599.20373320252384,0.15324216402326504
600.28353737841144,0.15730560755692219
601.36334155429904,0.16416180359332522
602.44314573018664,0.17409156026717892
603.52294990607425,0.18695190952904239
604.60275408196185,0.20043480470142983
605.68255825784945,0.21143698108379549
606.76236243373705,0.22026882577152723
607.84216660962466,0.22775795015807454
608.92197078551226,0.23535851958958087
610.00177496139986,0.24456736427918244
611.08157913728746,0.25349904308388044
612.16138331317507,0.26244358602051576
613.24118748906267,0.27565193954827405
614.32099166495027,0.29323134585196781
615.40079584083787,0.3134837015761282
616.48060001672548,0.33478938016103971
617.56040419261308,0.35715781723950246
618.64020836850068,0.38259140683715198
619.72001254438828,0.41313627612071457
620.79981672027589,0.45046653535270437
621.87962089616349,0.49157988780772155
622.95942507205109,0.53238403834886094
624.03922924793869,0.57137614482315668
625.11903342382629,0.61295915565044723
626.1988375997139,0.65705697683184405
627.2786417756015,0.69891628341813772
628.3584459514891,0.73306245159962491
629.4382501273767,0.76045661791522068
630.51805430326431,0.78312212843138684
631.59785847915191,0.80278543833705096
632.67766265503951,0.81445770155827213
633.75746683092711,0.81722488571104113
634.83727100681472,0.81178923528919333
635.91707518270232,0.80132579308647012
636.99687935858992,0.78710471341882882
638.07668353447752,0.7682268286474716
639.15648771036513,0.74286217228480556
640.23629188625273,0.71455147126633289
641.31609606214033,0.68779798244325308
642.39590023802793,0.66497053676184936
643.47570441391554,0.64143716660126571
644.55550858980314,0.61569212800130857
645.63531276569074,0.58918309813098202
646.71511694157834,0.56480085083658627
647.79492111746595,0.54295913102333226
648.87472529335355,0.52314108884603583
649.95452946924115,0.50457429665547859
651.03433364512875,0.4861653634926455
652.11413782101636,0.46705060737765564
653.19394199690396,0.44724562975000759
654.27374617279156,0.42833584023582111
655.35355034867916,0.41005804685770658
656.43335452456677,0.39168965780273501
657.51315870045437,0.37347454353329312
658.59296287634197,0.35473479591447699
659.67276705222957,0.3352651258880468
660.75257122811718,0.31535691683868827
661.83237540400478,0.29482681132898586
662.91217957989238,0.27546339916228807
663.99198375577998,0.25822473268037377
665.07178793166759,0.24271740518327992
666.15159210755519,0.22819135330427365
667.23139628344279,0.21342442641466192
668.31120045933039,0.19803014471585731
669.391004635218,0.18266752799572411
670.4708088111056,0.16930103080498959
671.5506129869932,0.15875646682005806
672.6304171628808,0.14959581288490631
673.71022133876841,0.14108330924672852
674.79002551465601,0.13254997881637548
675.86982969054361,0.12382380964821543
676.94963386643121,0.11380315189568589
678.02943804231882,0.10438481767760682
679.10924221820642,0.097935337673816986
680.18904639409402,0.094353452451245656
681.26885056998162,0.091329027496702006
682.34865474586923,0.0870085018725128
683.42845892175683,0.081780960486030882
684.50826309764443,0.076795927818086293
685.58806727353203,0.071697857468268261
686.66787144941964,0.06599553089756871
687.74767562530724,0.06039889667426683
688.82747980119484,0.057117067343887024
689.90728397708244,0.056535064835676288
690.98708815297005,0.056770707529286771
692.06689232885765,0.056286824621380342
693.14669650474525,0.053149153376715212
694.22650068063285,0.048241194326962888
695.30630485652046,0.045340176723544144
696.38610903240806,0.043043835552500756
697.46591320829566,0.040894474551076816
698.54571738418326,0.040237824586859761
699.62552156007087,0.039815791851285351
700.70532573595847,0.037882059906137182
701.78512991184607,0.034199878594853225
702.86493408773367,0.030624822566202036
703.94473826362128,0.03135453873251437
705.02454243950888,0.033380514589596413
706.10434661539648,0.031034515100038108
707.18415079128408,0.02707310107316923
708.26395496717168,0.025629547110360262
709.34375914305929,0.027883146977633763
710.42356331894689,0.029359739279343561
711.50336749483449,0.029260345236954068
712.58317167072209,0.027941217791078356
713.6629758466097,0.026341575714751601
714.7427800224973,0.024172267087064287
715.8225841983849,0.021972813980376225
716.9023883742725,0.020680368460013639
717.98219255016011,0.021775119863575637
719.06199672604771,0.02257205985190569
720.14180090193531,0.022123134957479591
721.22160507782291,0.020903339674599869
722.30140925371052,0.018576225315679054
723.38121342959812,0.01839609545463956
724.46101760548572,0.020609365278564617
725.54082178137332,0.021493205569125425
726.62062595726093,0.019737774019294461
727.70043013314853,0.016193665877440172
728.78023430903613,0.012962059726735108
729.86003848492373,0.012492738939540435
730.93984266081134,0.012999052436640781
732.01964683669894,0.012852275104642161
733.09945101258654,0.012011313850369442
734.17925518847414,0.010593995069440861
735.25905936436175,0.0092243853680536274
736.33886354024935,0.008485983302121013
737.41866771613695,0.0091427930179857255
738.49847189202455,0.010045639219422073
739.57827606791216,0.010679253264883757
740.65808024379976,0.010854026436780852
741.73788441968736,0.011021690867866925
742.81768859557496,0.011122387983681349
743.89749277146257,0.010934065647121217
744.97729694735017,0.0093754329041967864
746.05710112323777,0.0083986642346050092
747.13690529912537,0.0090564554204668173
748.21670947501298,0.010549233409784109
749.29651365090058,0.0095759739033861018
750.37631782678818,0.0066204785853463486
751.45612200267578,0.0046213490239903118
752.53592617856339,0.0073012331588936125
753.61573035445099,0.009671175603720588
754.69553453033859,0.0092304761898928181
755.77533870622619,0.0070679078730643006
756.8551428821138,0.007600322483818635
757.9349470580014,0.0098555574950038617
759.014751233889,0.012117334522352965
760.0945554097766,0.01254466178616304
761.17435958566421,0.013818622969368559
762.25416376155181,0.016470669750001218
763.33396793743941,0.018608117708630297
764.41377211332701,0.016019261574793862
765.49357628921462,0.014257045824711916
766.57338046510222,0.014793169864614625
767.65318464098982,0.017086973526999415
768.73298881687742,0.018085929206725953
769.81279299276503,0.018673625222475471
770.89259716865263,0.019887717851607624
771.97240134454023,0.022891039900133213
773.05220552042783,0.026432961333377625
774.13200969631544,0.029597950128453804
775.21181387220304,0.032489175786028682
776.29161804809064,0.038166038919241412
777.37142222397824,0.043023561326504707
778.45122639986585,0.047318009677933225
779.53103057575345,0.053544913626156924
780.61083475164105,0.06200148562360943
781.69063892752865,0.070304558658283972
782.77044310341626,0.078245757628856216
783.85024727930386,0.087895317416653546
784.93005145519146,0.10085942904902273
786.00985563107906,0.11518303945056181
787.08965980696667,0.12826800777489256
788.16946398285427,0.13985511214249713
789.24926815874187,0.15446673807758482
790.32907233462947,0.17264142026582444
791.40887651051708,0.19110652872198225
792.48868068640468,0.20815860959143634
793.56848486229228,0.22272341320548228
794.64828903817988,0.23743735192262105
795.72809321406748,0.25437629658682803
796.80789738995509,0.27168845805659481
797.88770156584269,0.28682244460644168
798.96750574173029,0.29874684242775451
800.04730991761789,0.30893988637506797
801.1271140935055,0.32207508911366795
802.2069182693931,0.33641310605397701
803.2867224452807,0.34829096823353711
804.3665266211683,0.357375055651794
805.44633079705591,0.36476250201546206
806.52613497294351,0.3740670242762168
807.60593914883111,0.38677932438257573
808.68574332471871,0.39791412657004954
809.76554750060632,0.40757397982324584
810.84535167649392,0.41599670419945634
811.92515585238152,0.42295515311175036
813.00496002826912,0.43235812403862356
814.08476420415673,0.44253810371286184
815.16456838004433,0.45154334682636948
816.24437255593193,0.46112334245701819
817.32417673181953,0.47179990267355987
818.40398090770714,0.48351652948717572
819.48378508359474,0.49570893415955458
820.56358925948234,0.50343721740924308
821.64339343536994,0.50884187696142968
822.72319761125755,0.51662703290709355
823.80300178714515,0.52913297976024554
824.88280596303275,0.54287970927541385
825.96261013892035,0.55461122155870268
827.04241431480796,0.56222790730145578
828.12221849069556,0.5663840656310164
829.20202266658316,0.57058249754873247
830.28182684247076,0.57714935027799219
831.36163101835837,0.58634423758530563
832.44143519424597,0.59681816723070225
833.52123937013357,0.60680027410362802
834.60104354602117,0.61459347230171701
835.68084772190878,0.62117233932222793
836.76065189779638,0.6287747763548055
837.84045607368398,0.63811562033944313
838.92026024957158,0.64733058664806786
840.00006442545919,0.6540832608345003
841.07986860134679,0.66194943199260292
842.15967277723439,0.67081777012002064
843.23947695312199,0.68100915344227841
844.3192811290096,0.69195689465029264
845.3990853048972,0.70322072809535008
846.4788894807848,0.71226257201500387
847.5586936566724,0.71946273996520183
848.63849783256001,0.72485477019376732
849.71830200844761,0.73157663264567641
850.79810618433521,0.73870243305722016
851.87791036022281,0.74245203554690609
852.95771453611042,0.73972348094696272
854.03751871199802,0.73485720585309644
855.11732288788562,0.72937815028069997
856.19712706377322,0.71992210446319083
857.27693123966083,0.70413031633268708
858.35673541554843,0.68161878990941904
859.43653959143603,0.65439820198531296
860.51634376732363,0.62647043080772369
861.59614794321124,0.59692695145371999
862.67595211909884,0.5632425437314782
863.75575629498644,0.52594410696418781
864.83556047087404,0.48911707312787689
865.91536464676165,0.45234372612257218
866.99516882264925,0.41697042532043088
868.07497299853685,0.38408600948524402
869.15477717442445,0.35533563372450638
870.23458135031206,0.33334361051242922
871.31438552619966,0.31610504107449838
872.39418970208726,0.30149541962146748
873.47399387797486,0.29089497858711388
874.55379805386247,0.28508826880231858
875.63360222975007,0.28382043706519638
876.71340640563767,0.2855680176938527
877.79321058152527,0.28854906200928343
878.87301475741288,0.2941431906269672
879.95281893330048,0.3029870931456663
881.03262310918808,0.31506071968046834
882.11242728507568,0.32744721879568323
883.19223146096328,0.3375102326282568
884.27203563685089,0.34513572248294822
885.35183981273849,0.35218660841865596
886.43164398862609,0.36142157569760297
887.51144816451369,0.37252947616826765
888.5912523404013,0.3826053929685343
889.6710565162889,0.38860602376609116
890.7508606921765,0.39180376114810184
891.8306648680641,0.39573476853511425
892.91046904395171,0.4012801862698388
893.99027321983931,0.40578549056793606
895.07007739572691,0.40759715819513526
896.14988157161451,0.40855899275717067
897.22968574750212,0.4100893580157996
898.30948992338972,0.41123919165114142
899.38929409927732,0.41058900812419685
900.46909827516492,0.40856932659772804
901.54890245105253,0.40668333544820406
902.62870662694013,0.40482964999779275
903.70851080282773,0.40169527200122435
904.78831497871533,0.40448324696490495
905.86811915460294,0.4137042964814317
906.94792333049054,0.41450561722625756
908.02772750637814,0.40872727201777564
909.10753168226574,0.3991300894564867
910.18733585815335,0.39208569588656006
911.26714003404095,0.39179402116257783
912.34694420992855,0.38844709993256743
913.42674838581615,0.38102099935926853
914.50655256170376,0.38026802694168194
915.58635673759136,0.38095073178950162
916.66616091347896,0.38007260872779308
917.74596508936656,0.37571816637306621
918.82576926525417,0.36740354080349108
919.90557344114177,0.35826282202761472
920.98537761702937,0.35061367999558829
922.06518179291697,0.34575498292457224
923.14498596880458,0.34196831563628
924.22479014469218,0.33476441059328643
925.30459432057978,0.32464110697639542
926.38439849646738,0.31434163980420365
927.46420267235499,0.30565911233373133
928.54400684824259,0.29635877223182755
929.62381102413019,0.28602780543378731
930.70361520001779,0.27595810063701515
931.7834193759054,0.26989290573690838
932.863223551793,0.26566585339138638
933.9430277276806,0.25944867461973148
935.0228319035682,0.25057419118595958
936.10263607945581,0.24135574032627055
937.18244025534341,0.23199134838426744
938.26224443123101,0.22446527500999422
939.34204860711861,0.21929447623102324
940.42185278300622,0.21425561745209029
941.50165695889382,0.20934553216386068
942.58146113478142,0.20218676475279282
943.66126531066902,0.19311621478927635
944.74106948655663,0.1845790848450376
945.82087366244423,0.17514343016577777
946.90067783833183,0.1658350972435024
947.98048201421943,0.15675801568801251
949.06028619010704,0.14638311222182165
950.14009036599464,0.13713793225311641
951.21989454188224,0.12926019494447127
952.29969871776984,0.12098890987268283
953.37950289365745,0.11259884927169338
954.45930706954505,0.10423573454787566
955.53911124543265,0.095078129572966907
956.61891542132025,0.087507955771927423
957.69871959720786,0.083862534541940967
958.77852377309546,0.078326142823173919
959.85832794898306,0.070621501877156434
960.93813212487066,0.062962492679283444
962.01793630075827,0.057755819981771872
963.09774047664587,0.055893996429041207
964.17754465253347,0.052905655588880836
965.25734882842107,0.045704457088637851
966.33715300430868,0.040318520136177254
967.41695718019628,0.036077378854296648
968.49676135608388,0.033050298498885883
969.57656553197148,0.029880025934842628
970.65636970785908,0.028178066531353459
971.73617388374669,0.027622282798992807
972.81597805963429,0.025484778947536996
973.89578223552189,0.020468424643687977
974.97558641140949,0.0156587857553044
976.0553905872971,0.013821046868161192
977.1351947631847,0.014819062454570375
978.2149989390723,0.014777168113951022
979.2948031149599,0.011984375320865739
980.37460729084751,0.010531744976080342
981.45441146673511,0.010218187253251765
982.53421564262271,0.010802605623736848
983.61401981851031,0.01042484866484188
984.69382399439792,0.0093661770715577231
985.77362817028552,0.0099836001288665967
986.85343234617312,0.012758142456286372
987.93323652206072,0.013839438589076236
989.01304069794833,0.014085840325174603
990.09284487383593,0.015924388591234115
991.17264904972353,0.018421156863255735
992.25245322561113,0.020068505677542262
993.33225740149874,0.021944549591456693
994.41206157738634,0.022108236188703397
995.49186575327394,0.021242511770812121
996.57166992916154,0.022915791748257336
997.65147410504915,0.027988645197437573
998.73127828093675,0.037388260086075459
999.81108245682435,0.046280663109281667
1000.890886632712,0.04871852028847902
1001.9706908085996,0.047921930229676266
1003.0504949844872,0.050446752527006887
1004.1302991603748,0.05928517643665393
1005.2101033362624,0.071103183128963826
1006.28990751215,0.078995518450362512
1007.3697116880376,0.085473127999118062
1008.4495158639252,0.093982040416274698
1009.5293200398128,0.10754212259531615
1010.6091242157004,0.12428327584761749
1011.688928391588,0.13942715215219559
1012.7687325674756,0.149007172640373
1013.8485367433632,0.15430687495988252
1014.9283409192508,0.15775500508622098
1016.0081450951384,0.16626355821763467
1017.087949271026,0.17932138413821841
1018.1677534469136,0.19058091046476597
1019.2475576228012,0.19489598612643463
1020.3273617986888,0.19801925548870788
1021.4071659745764,0.2021349420607747
1022.486970150464,0.20781556673488255
1023.5667743263516,0.21228221765125732
1024.6465785022392,0.21362674091711889
1025.7263826781268,0.21155025233713162
1026.8061868540144,0.20831646188479069
1027.885991029902,0.20279155319868417
1028.9657952057896,0.19867350524290694
1030.0455993816772,0.19175701881208493
1031.1254035575648,0.18143777347867651
1032.2052077334524,0.17030549453194491
1033.28501190934,0.16244999642813041
1034.3648160852276,0.15755483995960426
1035.4446202611152,0.15441186470934082
1036.5244244370028,0.14995729624022877
1037.6042286128904,0.14527581569861958
1038.684032788778,0.13938886527158217
1039.7638369646656,0.13543924285787984
1040.8436411405532,0.13485838087232777
1041.9234453164408,0.13690091166134508
1043.0032494923285,0.13758411443346305
1044.0830536682161,0.13668900473782686
1045.1628578441037,0.13613445086918133
1046.2426620199913,0.13900274221161996
1047.3224661958789,0.14517813367699184
1048.4022703717665,0.15041289943723804
1049.4820745476541,0.15177764008539285
1050.5618787235417,0.15254818651205754
1051.6416828994293,0.15796194625717344
1052.7214870753169,0.16593423018552947
1053.8012912512045,0.17311285192378728
1054.8810954270921,0.17618464361819453
1055.9608996029797,0.17911457395847238
1057.0407037788673,0.18820764524783137
1058.1205079547549,0.2016730157441349
1059.2003121306425,0.2123561051501221
1060.2801163065301,0.21857993331764103
1061.3599204824177,0.22360901167274755
1062.4397246583053,0.2324226603083295
1063.5195288341929,0.24617749174605522
1064.5993330100805,0.2594754598076619
1065.6791371859681,0.26696553035668458
1066.7589413618557,0.26958309471146658
1067.8387455377433,0.27378015085038393
1068.9185497136309,0.2819879244587099
1069.9983538895185,0.29306073418567652
1071.0781580654061,0.30112227575608524
1072.1579622412937,0.30386603179889887
1073.2377664171813,0.30381737846438694
1074.3175705930689,0.30440426959655403
1075.3973747689565,0.30724712135273458
1076.4771789448441,0.31172497974137203
1077.5569831207317,0.31500186240982736
1078.6367872966193,0.31707522223158069
1079.7165914725069,0.31965689303503281
1080.7963956483945,0.32212856998127881
1081.8761998242821,0.32667070712839025
1082.9560040001697,0.3328232916441593
1084.0358081760573,0.33665066783190534
1085.1156123519449,0.33927189490977211
1086.1954165278325,0.34431768258629691
1087.2752207037202,0.35239972345062176
1088.3550248796078,0.36340615033819829
1089.4348290554954,0.37113809942475967
1090.514633231383,0.37400242637700742
1091.5944374072706,0.37558152896825692
1092.6742415831582,0.37795024511671138
1093.7540457590458,0.38088257782464197
1094.8338499349334,0.38152956257594689
1095.913654110821,0.38024254026628623
1096.9934582867086,0.37939450097458677
1098.0732624625962,0.38082061317880972
1099.1530666384838,0.38216889814296906
1100.2328708143714,0.38098575888161235
1101.312674990259,0.37543506262775406
1102.3924791661466,0.36862793201310401
1103.4722833420342,0.36474464178325011
1104.5520875179218,0.36620821789565972
1105.6318916938094,0.36888210400402877
1106.711695869697,0.36937203779621158
1107.7915000455846,0.36455045321889623
1108.8713042214722,0.36252535680976011
1109.9511083973598,0.36425960088682774
1111.0309125732474,0.36724524822065596
1112.110716749135,0.368542828645674
1113.1905209250226,0.3681965033165685
1114.2703251009102,0.36807290749244492
1115.3501292767978,0.37160077441026595
1116.4299334526854,0.37437713361308816
1117.509737628573,0.37741097864375289
1118.5895418044606,0.38082081112999866
1119.6693459803482,0.38378887907192222
1120.7491501562358,0.38576469526573925
1121.8289543321234,0.3868023824345253
1122.908758508011,0.38854308755106337
1123.9885626838986,0.3908958795154085
1125.0683668597862,0.39169353842224713
1126.1481710356738,0.3893183613461339
1127.2279752115614,0.38714608812998669
1128.307779387449,0.38757824667965302
1129.3875835633366,0.39037666267285304
1130.4673877392243,0.39054920850588704
1131.5471919151119,0.38633671474061304
1132.6269960909995,0.38178913487986665
1133.7068002668871,0.38047674540262044
1134.7866044427747,0.37937711282354092
1135.8664086186623,0.37644107007535177
1136.9462127945499,0.37237959152445199
1138.0260169704375,0.37055305982704267
1139.1058211463251,0.37043739764195088
1140.1856253222127,0.36807123530521069
1141.2654294981003,0.36130665347924212
1142.3452336739879,0.35045556842344966
1143.4250378498755,0.33815135633191967
1144.5048420257631,0.32587486976860242
1145.5846462016507,0.31208713807959132
1146.6644503775383,0.29529435738439053
1147.7442545534259,0.27355585022256013
1148.8240587293135,0.24723311744347745
1149.9038629052011,0.22008566659877396
1150.9836670810887,0.19370909246618864
1152.0634712569763,0.16621747975676726
1153.1432754328639,0.1401124635062278
1154.2230796087515,0.11488522793764487
1155.3028837846391,0.090522406216717796
1156.3826879605267,0.068523347546724775
1157.4624921364143,0.050434301737682478
1158.5422963123019,0.037032209936908866
1159.6221004881895,0.028696741426882055
1160.7019046640771,0.020742744373997236
1161.7817088399647,0.015174487991828982
1162.8615130158523,0.012881763515480283
1163.9413171917399,0.011871487522395007
1165.0211213676275,0.010284220106895475
1166.1009255435151,0.0087511819960014777
1167.1807297194027,0.0060340967486816098
1168.2605338952903,0.0033713280730709476
1169.3403380711779,0.0023705623887097134
1170.4201422470655,0.0045844402673481267
1171.4999464229531,0.0075932778342865086
1172.5797505988407,0.010039601920656924
1173.6595547747283,0.010417302129434022
1174.739358950616,0.011442134743649775
1175.8191631265036,0.013487756692373197
1176.8989673023912,0.015686292788943717
1177.9787714782788,0.017113283456097632
1179.0585756541664,0.018712898127526172
1180.138379830054,0.019478939790068261
1181.2181840059416,0.020310311047919864
1182.2979881818292,0.021573574990116307
1183.3777923577168,0.02292232023895532
1184.4575965336044,0.023139870137680901
1185.537400709492,0.021622226001419772
1186.6172048853796,0.020843965407489645
1187.6970090612672,0.020551530579093459
1188.7768132371548,0.020333328895205383
1189.8566174130424,0.020302754158244021
1190.93642158893,0.018434118052522781
1192.0162257648176,0.017028859671651502
1193.0960299407052,0.017776102884273285
1194.1758341165928,0.018935604998268338
1195.2556382924804,0.019506203345755702
1196.335442468368,0.016923208427593091
1197.4152466442556,0.011598465261246381
1198.4950508201432,0.0089278741333525154
1199.5748549960308,0.0093172925656191483
1200.6546591719184,0.011884585393383679
1201.734463347806,0.012274494896816575
1202.8142675236936,0.0099249768617630033
1203.8940716995812,0.0063317667047498314
1204.9738758754688,0.004351630565845214
1206.0536800513564,0.0061371165993960681
1207.133484227244,0.01050249270673707
1208.2132884031316,0.012035378948552732
1209.2930925790192,0.0099592412837309734
1210.3728967549068,0.0059284234591610533
1211.4527009307944,0.0043401375128707511
1212.532505106682,0.0077045357282756058
1213.6123092825696,0.011908224344180552
1214.6921134584572,0.013272681318620392
1215.7719176343448,0.012810385695259295
1216.8517218102324,0.010830184859158317
1217.9315259861201,0.0097852675542584207
1219.0113301620077,0.010667216914201074
1220.0911343378953,0.012077331958138295
1221.1709385137829,0.013084501788827715
1222.2507426896705,0.014822926000616209
1223.3305468655581,0.017102714366609911
1224.4103510414457,0.02084817411311991
1225.4901552173333,0.023951591737336408
1226.5699593932209,0.024073875826479046
1227.6497635691085,0.022339673850343873
1228.7295677449961,0.022932459365173932
1229.8093719208837,0.026346326447788847
1230.8891760967713,0.031566436333271081
1231.9689802726589,0.034082605200096039
1233.0487844485465,0.033814727085346212
1234.1285886244341,0.035999109661014009
1235.2083928003217,0.041293575549630625
1236.2881969762093,0.045737652879635576
1237.3680011520969,0.047717966784798116
1238.4478053279845,0.045808271839218428
1239.5276095038721,0.044697088539538347
1240.6074136797597,0.045836647097842791
1241.6872178556473,0.046467966017054226
1242.7670220315349,0.047045222398515649
1243.8468262074225,0.04673926400729473
1244.9266303833101,0.043796085381972882
1246.0064345591977,0.040588739696163723
1247.0862387350853,0.038292868181696249
1248.1660429109729,0.037069064828230684
1249.2458470868605,0.037578009410475094
1250.3256512627481,0.036997434004513351
1251.4054554386357,0.034887495552456363
1252.4852596145233,0.032147675994484898
1253.5650637904109,0.030733254705367138
1254.6448679662985,0.030182026001496116
1255.7246721421861,0.02880866079518047
1256.8044763180737,0.024661262430875748
1257.8842804939613,0.020765908111890184
1258.9640846698489,0.018883891415984708
1260.0438888457365,0.019582817121903111
1261.1236930216241,0.019984155932224343
1262.2034971975118,0.017804303335155064
1263.2833013733994,0.014576355890872205
1264.363105549287,0.013943135734165672
1265.4429097251746,0.014909337161650891
1266.5227139010622,0.016722106105963325
1267.6025180769498,0.017144184828433353
1268.6823222528374,0.016153607388390834
1269.762126428725,0.013877035486426418
1270.8419306046126,0.013460652082577863
1271.9217347805002,0.014023184011708403
1273.0015389563878,0.014352398914052577
1274.0813431322754,0.013147452029039296
1275.161147308163,0.012021464698527011
1276.2409514840506,0.011871088120854155
1277.3207556599382,0.01414055221283737
1278.4005598358258,0.015478729635674286
1279.4803640117134,0.015749817067295575
1280.560168187601,0.01397874843808177
1281.6399723634886,0.01409201013461246
1282.7197765393762,0.016351281465038899
1283.7995807152638,0.01965343072684601
1284.8793848911514,0.023776283646542627
1285.959189067039,0.024682727073408892
1287.0389932429266,0.023450555663313007
1288.1187974188142,0.024778662435311807
1289.1986015947018,0.02685794376646302
1290.2784057705894,0.029467753241258488
1291.358209946477,0.031554168330224425
1292.4380141223646,0.031309921530232585
1293.5178182982522,0.032219179772944473
1294.5976224741398,0.033714194684844823
1295.6774266500274,0.036803570559827116
1296.757230825915,0.038976204617010624
1297.8370350018026,0.038383876091697341
1298.9168391776902,0.037661924704310804
1299.9966433535778,0.040105869836602116
1301.0764475294654,0.046385826640702885
1302.156251705353,0.053453610132225868
1303.2360558812406,0.05532859799610134
1304.3158600571282,0.053219363003387123
1305.3956642330159,0.05212767333995072
1306.4754684089035,0.056656013904104831
1307.5552725847911,0.062656752708020166
1308.6350767606787,0.065262590797710324
1309.7148809365663,0.064877579352218814
1310.7946851124539,0.066469135277459263
1311.8744892883415,0.071292839110005266
1312.9542934642291,0.077392042430827604
1314.0340976401167,0.082229889034872009
1315.1139018160043,0.086651375849991399
1316.1937059918919,0.089653949363972085
1317.2735101677795,0.091717482144852577
1318.3533143436671,0.092970265273422642
1319.4331185195547,0.097759307310124
1320.5129226954423,0.10449026333414251
1321.5927268713299,0.10758486561482446
1322.6725310472175,0.10974398920982628
1323.7523352231051,0.11584108020557028
1324.8321393989927,0.1224894858409043
1325.9119435748803,0.1284732435725664
1326.9917477507679,0.13253568512380948
1328.0715519266555,0.13643358701656907
1329.1513561025431,0.14214922757986864
1330.2311602784307,0.14974344742214338
1331.3109644543183,0.15646094949780925
1332.3907686302059,0.16250673832378298
1333.4705728060935,0.16897080021663713
1334.5503769819811,0.17575575306921287
1335.6301811578687,0.18540714435251404
1336.7099853337563,0.19821496253530377
1337.7897895096439,0.20902613496440989
1338.8695936855315,0.21694090445079195
1339.9493978614191,0.22501997585410305
1341.0292020373067,0.23300275959675423
1342.1090062131943,0.24608409973974549
1343.1888103890819,0.26173862739527876
1344.2686145649695,0.27376348684040752
1345.3484187408571,0.2825641836797852
1346.4282229167447,0.2883345443482333
1347.5080270926323,0.29643634971852195
1348.5878312685199,0.30997400990726887
1349.6676354444076,0.32177402024542412
1350.7474396202952,0.32875705995727844
1351.8272437961828,0.33352637240157723
1352.9070479720704,0.33862446445563404
1353.986852147958,0.34636860647759982
1355.0666563238456,0.35214286224194513
1356.1464604997332,0.35443536646498042
1357.2262646756208,0.35461598456355181
1358.3060688515084,0.35461957347702605
1359.385873027396,0.35677476955155518
1360.4656772032836,0.35845366095686393
1361.5454813791712,0.35607384948585319
1362.6252855550588,0.3506234162767341
1363.7050897309464,0.348474459490556
1364.784893906834,0.35078358165657569
1365.8646980827216,0.35422436562477749
1366.9445022586092,0.3531971755282779
1368.0243064344968,0.35112773255911128
1369.1041106103844,0.35095434016870675
1370.183914786272,0.35435289908141365
1371.2637189621596,0.35685093366283188
1372.3435231380472,0.35580476511860759
1373.4233273139348,0.35282081711343022
1374.5031314898224,0.34981610559012349
1375.58293566571,0.34367310584065014
1376.6627398415976,0.33871041944205926
1377.7425440174852,0.33555219944934872
1378.8223481933728,0.330033950290537
1379.9021523692604,0.31812216886646777
1380.981956545148,0.30244248305776839
1382.0617607210356,0.28699811605697434
1383.1415648969232,0.27438380136172724
1384.2213690728108,0.26227666306225139
1385.3011732486984,0.24786849442013176
1386.380977424586,0.23185348580606999
1387.4607816004736,0.21885457961710955
1388.5405857763612,0.20915195377726167
1389.6203899522488,0.20110129613755606
1390.7001941281364,0.19230363227813521
1391.779998304024,0.1848488030051032
1392.8598024799117,0.17767527691022608
1393.9396066557993,0.17482075881952658
1395.0194108316869,0.1764571663529258
1396.0992150075745,0.17883450041658777
1397.1790191834621,0.18128942178858956
1398.2588233593497,0.18422398908822929
1399.3386275352373,0.18598095338812115
1400.4184317111249,0.19149538657967105
1401.4982358870125,0.20025249799499442
1402.5780400629001,0.20722659030562218
1403.6578442387877,0.21492691391130669
1404.7376484146753,0.22123847739327063
1405.8174525905629,0.22998524512729193
1406.8972567664505,0.24366906533313853
1407.9770609423381,0.25769256444513317
1409.0568651182257,0.26917518365846588
1410.1366692941133,0.2806705934412414
1411.2164734700009,0.29200061074167333
1412.2962776458885,0.309309681508314
1413.3760818217761,0.3314288283886766
1414.4558859976637,0.35437897089161469
1415.5356901735513,0.3749450552852977
1416.6154943494389,0.39369344007694212
1417.6952985253265,0.41342860289799938
1418.7751027012141,0.43745923323361319
1419.8549068771017,0.46704326490757908
1420.9347110529893,0.4985284100799825
1422.0145152288769,0.5306294488264548
1423.0943194047645,0.56389385236653033
1424.1741235806521,0.59842496221186425
1425.2539277565397,0.6349154800455018
1426.3337319324273,0.67170979558056076
1427.4135361083149,0.70654461368547972
1428.4933402842025,0.74264283463737268
1429.5731444600901,0.78118960570587115
1430.6529486359777,0.82054119779126
1431.7327528118653,0.85740660026997084
1432.8125569877529,0.89153680503396182
1433.8923611636405,0.9211222586994221
1434.9721653395281,0.9464395276198011
1436.0519695154157,0.96755769881852005
1437.1317736913034,0.98373581128103027
1438.211577867191,0.99670681007775475
1439.2913820430786,0.99877549297750945
1440.3711862189662,0.99021768669101007
1441.4509903948538,0.97501000192434661
1442.5307945707414,0.95322940086726948
1443.610598746629,0.92248145593380437
1444.6904029225166,0.88126742782381007
1445.7702070984042,0.83223006086550189
1446.8500112742918,0.77954736216916043
1447.9298154501794,0.72177151380220228
1449.009619626067,0.66133850343195943
1450.0894238019546,0.60044217320899285
1451.1692279778422,0.5394239021975058
1452.2490321537298,0.48027291772218339
1453.3288363296174,0.42176645368759169
1454.408640505505,0.37001378430210741
1455.4884446813926,0.32481651286418128
1456.5682488572802,0.28340038105264137
1457.6480530331678,0.24475347256817084
1458.7278572090554,0.21190774970213883
1459.807661384943,0.18490770873951079
1460.8874655608306,0.16367428618798713
1461.9672697367182,0.14525303503466586
1463.0470739126058,0.12650232640700851
1464.1268780884934,0.10853860750394638
1465.206682264381,0.09422736313971844
1466.2864864402686,0.084925121028430639
1467.3662906161562,0.07758415877409576
1468.4460947920438,0.068600547172539342
1469.5258989679314,0.059268661179951339
1470.605703143819,0.050727876741537996
1471.6855073197066,0.045502090826434957
1472.7653114955942,0.042380827440417802
1473.8451156714818,0.038637923809304586
1474.9249198473694,0.034948746268360892
1476.004724023257,0.031159080243801932
1477.0845281991446,0.027580821513016801
1478.1643323750322,0.024972421139601093
1479.2441365509198,0.022441212341807661
1480.3239407268075,0.020195439196447194
1481.4037449026951,0.017192401513901549
1482.4835490785827,0.013691821478930454
1483.5633532544703,0.012881995604029559
1484.6431574303579,0.012194387425711257
1485.7229616062455,0.011995387428290202
1486.8027657821331,0.011434441294908981
1487.8825699580207,0.010875649130033131
1488.9623741339083,0.01085760918724139
1490.0421783097959,0.0130111930782024
1491.1219824856835,0.01268743008424216
1492.2017866615711,0.010068841209479746
1493.2815908374587,0.0065893018392568633
1494.3613950133463,0.0054777673303312274
1495.4411991892339,0.0070562697925600172
1496.5210033651215,0.011435230648594875
1497.6008075410091,0.013002804546272742
1498.6806117168967,0.011033494438479169
1499.7604158927843,0.0077672147218389607
1500.8402200686719,0.0059249448364303223
1501.9200242445595,0.0054897854705560564
1502.9998284204471,0.0077283954084442436
1504.0796325963347,0.0086286345631361779
1505.1594367722223,0.0077001243511585103
1506.2392409481099,0.0070508905962420893
1507.3190451239975,0.0082102864512274675
1508.3988492998851,0.010086359635258125
1509.4786534757727,0.011734902311918566
1510.5584576516603,0.010572524457329219
1511.6382618275479,0.0092068400767089525
1512.7180660034355,0.0093754791942836264
1513.7978701793231,0.010289699850416417
1514.8776743552107,0.010784447231183776
1515.9574785310983,0.010529030641400563
1517.0372827069859,0.010378682021873264
1518.1170868828735,0.012430605804031835
1519.1968910587611,0.014822894458174751
1520.2766952346487,0.015169374902872223
1521.3564994105363,0.01434202840425617
1522.4363035864239,0.012420425940791102
1523.5161077623115,0.010586832137699599
1524.5959119381992,0.0094800013233387308
1525.6757161140868,0.010007322015113174
1526.7555202899744,0.012938420325468693
1527.835324465862,0.015080708898761902
1528.9151286417496,0.014068018123764495
1529.9949328176372,0.011167786662220085
1531.0747369935248,0.0089592719153761546
1532.1545411694124,0.0087036053509511758
1533.2343453453,0.0090380453111854504
1534.3141495211876,0.0094512228027727532
1535.3939536970752,0.0099411726772719207
1536.4737578729628,0.010148298439925619
1537.5535620488504,0.010178255206078393
1538.633366224738,0.0096495494413187666
1539.7131704006256,0.0091531653547124118
1540.7929745765132,0.0088637397759436538
1541.8727787524008,0.0087017123123953599
1542.9525829282884,0.0098536059557740984
1544.032387104176,0.012387817904311316
1545.1121912800636,0.014146267162530765
1546.1919954559512,0.013730812516125783
1547.2717996318388,0.01156148581569909
1548.3516038077264,0.011057400922991786
1549.431407983614,0.011632279576803142
1550.5112121595016,0.013423892389169009
1551.5910163353892,0.01473219108969134
1552.6708205112768,0.015144143542294472
1553.7506246871644,0.014858115340580427
1554.830428863052,0.01439988741315946
1555.9102330389396,0.014131562555713899
1556.9900372148272,0.013868106086050517
1558.0698413907148,0.013023980309043101
1559.1496455666024,0.011519931882232482
1560.22944974249,0.0097751806119266513
1561.3092539183776,0.0084016548801471094
1562.3890580942652,0.008698771545218734
1563.4688622701528,0.0083678742497052261
1564.5486664460404,0.0088942164015424433
1565.628470621928,0.010381066638079653
1566.7082747978156,0.0123783501230555
1567.7880789737033,0.013651753131425196
1568.8678831495909,0.01345292930983683
1569.9476873254785,0.01115212822561913
1571.0274915013661,0.010824829889945188
1572.1072956772537,0.011101448293723464
1573.1870998531413,0.010857631501783366
1574.2669040290289,0.010087734305626209
1575.3467082049165,0.0089308198391245871
1576.4265123808041,0.010060674554073761
1577.5063165566917,0.011860139492007914
1578.5861207325793,0.011325564644590259
1579.6659249084669,0.01099479276606821
1580.7457290843545,0.01136827643966028
1581.8255332602421,0.010778558846554856
1582.9053374361297,0.0098558996987629464
1583.9851416120173,0.0090837657212700391
1585.0649457879049,0.0099204085909609836
1586.1447499637925,0.011288323003238013
1587.2245541396801,0.010636255997089141
1588.3043583155677,0.0078526261221668441
1589.3841624914553,0.0079066412242457321
1590.4639666673429,0.0097950843792625475
1591.5437708432305,0.012549102110797178
1592.6235750191181,0.013550647818404217
1593.7033791950057,0.012477107178482497
1594.7831833708933,0.011325965701781873
1595.8629875467809,0.011626414808685401
1596.9427917226685,0.011195150621268314
1598.0225958985561,0.011401832987267572
1599.1024000744437,0.010231130796377693
1600.1822042503313,0.0093948240318421708
1601.2620084262189,0.0096839499981687012
1602.3418126021065,0.010746836572288861
1603.4216167779941,0.010716394517866308
1604.5014209538817,0.010983635840816458
1605.5812251297693,0.011181580184473541
1606.6610293056569,0.011470018517266973
1607.7408334815445,0.012611838866951743
1608.8206376574321,0.013640365648984496
1609.9004418333197,0.013548981954441821
1610.9802460092073,0.013768688673228118
1612.060050185095,0.013345667450220061
1613.1398543609826,0.012400836495107793
1614.2196585368702,0.011747908522567489
1615.2994627127578,0.011668719112365084
1616.3792668886454,0.011534895358609177
1617.459071064533,0.010725960844872656
1618.5388752404206,0.0089847967379455204
1619.6186794163082,0.0072191406255663806
1620.6984835921958,0.0080392153320405346
1621.7782877680834,0.0095699747793441519
1622.858091943971,0.0096980952844128842
1623.9378961198586,0.00874201249431273
1625.0177002957462,0.0081455529083409445
1626.0975044716338,0.0096728088278892361
1627.1773086475214,0.010538623633380775
1628.257112823409,0.010617691481741178
1629.3369169992966,0.010744387504501206
1630.4167211751842,0.010611409979170169
1631.4965253510718,0.010739443709213939
1632.5763295269594,0.011976113401914091
1633.656133702847,0.011673326536711
1634.7359378787346,0.01225656877628691
1635.8157420546222,0.011701304420160773
1636.8955462305098,0.0098957263558599462
1637.9753504063974,0.0087343841169990818
1639.055154582285,0.0093538633611753852
1640.1349587581726,0.010173597202349406
1641.2147629340602,0.010744544195800069
1642.2945671099478,0.0096753004309832191
1643.3743712858354,0.0087592794813690904
1644.454175461723,0.009429875853982677
1645.5339796376106,0.010241122028981708
1646.6137838134982,0.009562865679567354
1647.6935879893858,0.0073147583173783365
1648.7733921652734,0.0066783166132348311
1649.853196341161,0.0075408957253314205
1650.9330005170486,0.01106326889351188
1652.0128046929362,0.016481300134251649
1653.0926088688238,0.024528695087798306
1654.1724130447114,0.034692524862785769
1655.2522172205991,0.045100084410416186
1656.3320213964867,0.054911824651771406
1657.4118255723743,0.062707136059746593
1658.4916297482619,0.067664075388997172
1659.5714339241495,0.070747347350109874
1660.6512381000371,0.07157524722248941
1661.7310422759247,0.070188784715145433
1662.8108464518123,0.065534428655484686
1663.8906506276999,0.056478188638353119
1664.9704548035875,0.04582908791998274
1666.0502589794751,0.033921690968948086
1667.1300631553627,0.024277700317879475
1668.2098673312503,0.01860384765201421
1669.2896715071379,0.015150389539433307
1670.3694756830255,0.012301082461068234
1671.4492798589131,0.0098393584790795931
1672.5290840348007,0.0075792938039185541
1673.6088882106883,0.0089183741094381284
1674.6886923865759,0.011331486996562425
1675.7684965624635,0.012368042079437539
1676.8483007383511,0.012677520042590557
1677.9281049142387,0.013275390341363359
1679.0079090901263,0.012936914880029309
1680.0877132660139,0.013931684378337857
1681.1675174419015,0.014930112305722299
1682.2473216177891,0.01642438258727116
1683.3271257936767,0.016973240284050378
1684.4069299695643,0.017253121551789135
1685.4867341454519,0.018520612582984257
1686.5665383213395,0.020615292783506888
1687.6463424972271,0.023574066593560365
1688.7261466731147,0.024248173863962826
1689.8059508490023,0.024763918789339413
1690.8857550248899,0.028337534249342634
1691.9655592007775,0.032933651715789797
1693.0453633766651,0.036363506269545008
1694.1251675525527,0.039603055576375834
1695.2049717284403,0.040557512523647934
1696.2847759043279,0.042980752975222088
1697.3645800802155,0.048237679670199901
1698.4443842561031,0.056078353355908425
1699.5241884319908,0.06379638367976051
1700.6039926078784,0.068658173230664601
1701.683796783766,0.071302476092087175
1702.7636009596536,0.075557603471316528
1703.8434051355412,0.083028736583708407
1704.9232093114288,0.092035998852619469
1706.0030134873164,0.10002785430221804
1707.082817663204,0.10623763990250858
1708.1626218390916,0.11153821750288775
1709.2424260149792,0.11699451227451146
1710.3222301908668,0.12340228638261722
1711.4020343667544,0.12961638511622608
1712.481838542642,0.13488357254027314
1713.5616427185296,0.13908647658071427
1714.6414468944172,0.14322678815046849
1715.7212510703048,0.14827258496713669
1716.8010552461924,0.15388293191456487
1717.88085942208,0.15992067241678104
1718.9606635979676,0.16679770378693795
1720.0404677738552,0.17290917831089161
1721.1202719497428,0.1795471255386038
1722.2000761256304,0.18674029758969687
1723.279880301518,0.19388261558611555
1724.3596844774056,0.20148765267715935
1725.4394886532932,0.20910037174817661
1726.5192928291808,0.21578670147225898
1727.5990970050684,0.2217601301721302
1728.678901180956,0.22613294995187552
1729.7587053568436,0.22817429833400421
1730.8385095327312,0.22930045814787314
1731.9183137086188,0.22799164340480971
1732.9981178845064,0.22577543034627773
1734.077922060394,0.22512702741288948
1735.1577262362816,0.22311847328719475
1736.2375304121692,0.21605047815094769
1737.3173345880568,0.20905376340592838
1738.3971387639444,0.20104884003274892
1739.476942939832,0.19352647930557915
1740.5567471157196,0.1835842523988426
1741.6365512916072,0.17024698992302839
1742.7163554674949,0.15688790738679728
1743.7961596433825,0.14559873456862105
1744.8759638192701,0.1355998756982443
1745.9557679951577,0.12642898548528117
1747.0355721710453,0.11659448527259311
1748.1153763469329,0.10412889375114801
1749.1951805228205,0.089392419259124015
1750.2749846987081,0.077379214764303816
1751.3547888745957,0.069496350946722227
1752.4345930504833,0.061721605770711507
1753.5143972263709,0.0541329632160941
1754.5942014022585,0.045851355130591666
1755.6740055781461,0.039640210775802903
1756.7538097540337,0.035517578358927063
1757.8336139299213,0.030991403552385298
1758.9134181058089,0.026664486252451693
1759.9932222816965,0.023701114241704638
1761.0730264575841,0.021233386725307175
1762.1528306334717,0.020055750398030422
1763.2326348093593,0.019671169650898521
1764.3124389852469,0.017851889685298383
1765.3922431611345,0.015933803000809408
1766.4720473370221,0.012643935760803152
1767.5518515129097,0.0097702041312042187
1768.6316556887973,0.0095347957327188565
1769.7114598646849,0.011500856194840245
1770.7912640405725,0.013352137923906294
1771.8710682164601,0.014214943833136843
1772.9508723923477,0.012414249101095357
1774.0306765682353,0.011940963897065636
1775.1104807441229,0.011133420744317323
1776.1902849200105,0.010467599040229866
1777.2700890958981,0.010378462718778975
1778.3498932717857,0.01100190071341486
1779.4296974476733,0.011961024984495328
1780.5095016235609,0.013287968916896585
1781.5893057994485,0.011415515511512734
1782.6691099753361,0.010610656223220154
1783.7489141512237,0.0092357527678992406
1784.8287183271113,0.0091967108923479649
1785.9085225029989,0.010363163614652244
1786.9883266788866,0.011087113445885397
1788.0681308547742,0.0099460376528125258
1789.1479350306618,0.0093608211209178869
1790.2277392065494,0.0083902309953264725
1791.307543382437,0.0085023521165823596
1792.3873475583246,0.0085127807172638674
1793.4671517342122,0.0085220831151885182
1794.5469559100998,0.007960788490209118
1795.6267600859874,0.0075485719770868329
1796.706564261875,0.0081264942203363721
1797.7863684377626,0.0094288795291721777
1798.8661726136502,0.011054737419624127
1799.9459767895378,0.012209893534121436
1801.0257809654254,0.011340076284851307
1802.105585141313,0.009710518294805048
1803.1853893172006,0.0092765457311946974
1804.2651934930882,0.0097806757338263477
1805.3449976689758,0.0107298053238987
1806.4248018448634,0.011106646897961137
1807.504606020751,0.0099423215387501179
1808.5844101966386,0.010264746182754903
1809.6642143725262,0.011102841443618845
1810.7440185484138,0.011980997500055617
1811.8238227243014,0.011852436444356034
1812.903626900189,0.011044875367412256
1813.9834310760766,0.010816077716987291
1815.0632352519642,0.011641210584004292
1816.1430394278518,0.011951789002765447
1817.2228436037394,0.011856978828355949
1818.302647779627,0.011286606073272079
1819.3824519555146,0.0098191464074413697
1820.4622561314022,0.0088254598360968401
1821.5420603072898,0.009199016588032051
1822.6218644831774,0.0093482056694099078
1823.701668659065,0.009762449877745577
1824.7814728349526,0.010300931545313115
1825.8612770108402,0.0092743281288946659
1826.9410811867278,0.0098791126224559399
1828.0208853626154,0.010002185131083217
1829.100689538503,0.009980109176610583
1830.1804937143906,0.011243497130056053
1831.2602978902783,0.011877613561209272
1832.3401020661659,0.011579285479182104
1833.4199062420535,0.011393419616988252
1834.4997104179411,0.01094631249432256
1835.5795145938287,0.011483314672775337
1836.6593187697163,0.012645262410236243
1837.7391229456039,0.012890878965881642
1838.8189271214915,0.012405291747534096
1839.8987312973791,0.011357773842359918
1840.9785354732667,0.010449951316902567
1842.0583396491543,0.010354083458063441
1843.1381438250419,0.011082817984594238
1844.2179480009295,0.011576708273934883
1845.2977521768171,0.012280146667572874
1846.3775563527047,0.012286185671313513
1847.4573605285923,0.011638007136488817
1848.5371647044799,0.011688261757237214
1849.6169688803675,0.010421243072302419
1850.6967730562551,0.00955561438269599
1851.7765772321427,0.0094378634626825775
1852.8563814080303,0.0098805725808775065
1853.9361855839179,0.010778396730349332
1855.0159897598055,0.011073278471891003
1856.0957939356931,0.0096383982837640117
1857.1755981115807,0.008859065999710829
1858.2554022874683,0.0090472067900653971
1859.3352064633559,0.0097836999456568496
1860.4150106392435,0.0094590014053477188
1861.4948148151311,0.0092977557195969267
1862.5746189910187,0.0094808030442534406
1863.6544231669063,0.0099875474867002229
1864.7342273427939,0.011490105402356305
1865.8140315186815,0.01214055876019079
1866.8938356945691,0.01179752371274596
1867.9736398704567,0.01176181309704752
1869.0534440463443,0.013042346536331299
1870.1332482222319,0.012734608111977196
1871.2130523981195,0.012443127630384156
1872.2928565740071,0.011467717848064286
1873.3726607498947,0.0098439836726513571
1874.4524649257824,0.0095990134016820973
1875.53226910167,0.010477470482265458
1876.6120732775576,0.0095437052768600934
1877.6918774534452,0.0099353848228664089
1878.7716816293328,0.0092576936902912001
1879.8514858052204,0.0084884139029732589
1880.931289981108,0.009321719782185614
1882.0110941569956,0.009496563521344089
1883.0908983328832,0.0089504843604259685
1884.1707025087708,0.0090662471546205884
1885.2505066846584,0.0092109573841738374
1886.330310860546,0.0099890269295041367
1887.4101150364336,0.011093143431837081
1888.4899192123212,0.010520073510281046
1889.5697233882088,0.010431871674377658
1890.6495275640964,0.010677849813856815
1891.729331739984,0.0096429766186474086
1892.8091359158716,0.0096976696609977972
1893.8889400917592,0.010834923349890984
1894.9687442676468,0.012296103040502871
1896.0485484435344,0.013426689853651488
1897.128352619422,0.012692319851878901
1898.2081567953096,0.011367848363829198
1899.2879609711972,0.011339961247984158
1900.3677651470848,0.010696534313435356
1901.4475693229724,0.010744609138504146
1902.52737349886,0.011688129277687274
1903.6071776747476,0.012169540235991086
1904.6869818506352,0.012051957798682265
1905.7667860265228,0.012005708793705995
1906.8465902024104,0.011796888502074996
1907.926394378298,0.01171032057111974
1909.0061985541856,0.011099370734829981
1910.0860027300732,0.0097774570111015899
1911.1658069059608,0.0093949228583034734
1912.2456110818484,0.010555644977293187
1913.325415257736,0.0098102092589166696
1914.4052194336236,0.0096939094156156362
1915.4850236095112,0.010187538001272083
1916.5648277853988,0.010227839922032623
1917.6446319612864,0.010527974819288922
1918.7244361371741,0.010781123514390884
1919.8042403130617,0.0098681868597329872
1920.8840444889493,0.010099329817878661
1921.9638486648369,0.0094637407860896638
1923.0436528407245,0.0089801429209967649
1924.1234570166121,0.0099465947823887627
1925.2032611924997,0.010985393763667119
1926.2830653683873,0.011937873010673367
1927.3628695442749,0.012137244793404762
1928.4426737201625,0.01219079087925084
1929.5224778960501,0.012466423957277699
1930.6022820719377,0.01220677281580362
1931.6820862478253,0.011443961698192255
1932.7618904237129,0.011273722437892117
1933.8416945996005,0.010023718486849286
1934.9214987754881,0.010111786562137706
1936.0013029513757,0.010893471182179603
1937.0811071272633,0.01098773194772607
1938.1609113031509,0.010619356587829564
1939.2407154790385,0.0097788944235260005
1940.3205196549261,0.0092264934113558787
1941.4003238308137,0.010251565488872528
1942.4801280067013,0.010627544680040782
1943.5599321825889,0.010184276144393781
1944.6397363584765,0.009849707138942709
1945.7195405343641,0.01019277495269501
1946.7993447102517,0.011081538509439905
1947.8791488861393,0.012049490860894189
1948.9589530620269,0.012349587200573185
1950.0387572379145,0.010933336949554206
1951.1185614138021,0.010741905431916908
1952.1983655896897,0.011063062326635629
1953.2781697655773,0.010573767839029861
1954.3579739414649,0.010129841741046686
1955.4377781173525,0.0096333108862349161
1956.5175822932401,0.0090227260341842423
1957.5973864691277,0.010021816430069965
1958.6771906450153,0.010502624683246486
1959.7569948209029,0.011466603013048974
1960.8367989967905,0.012924578844824669
1961.9166031726782,0.012928625385550077
1962.9964073485658,0.011901308032858368
1964.0762115244534,0.01075687792643657
1965.156015700341,0.010624946327141137
1966.2358198762286,0.010946101419849464
1967.3156240521162,0.011139735398315472
1968.3954282280038,0.010715338990662389
1969.4752324038914,0.0097961936641963107
1970.555036579779,0.0094961417619629437
1971.6348407556666,0.010350282382609858
1972.7146449315542,0.011160456344800377
1973.7944491074418,0.010931350659426072
1974.8742532833294,0.009394167183307647
1975.954057459217,0.0089097658847171624
1977.0338616351046,0.0091650129241052456
1978.1136658109922,0.0089487098648840767
1979.1934699868798,0.008689369244332083
1980.2732741627674,0.0079692206303610038
1981.353078338655,0.0081006968718974424
1982.4328825145426,0.0095679662757687314
1983.5126866904302,0.010381897835446106
1984.5924908663178,0.012090462419635675
1985.6722950422054,0.012708233048633253
1986.752099218093,0.011564411277047701
1987.8319033939806,0.010202800884854788
1988.9117075698682,0.0094266679329344585
1989.9915117457558,0.010804565901041929
1991.0713159216434,0.011928640656925824
1992.151120097531,0.011296166466516535
1993.2309242734186,0.010631143282724251
1994.3107284493062,0.010435828527951151
1995.3905326251938,0.011088806971048889
1996.4703368010814,0.012273022638072381
1997.550140976969,0.011353883739148675
1998.6299451528566,0.011018356920510538
1999.7097493287442,0.01124791791186806
2000.7895535046318,0.01095799271445452
2001.8693576805194,0.011439799618798896
2002.949161856407,0.011118918844745355
2004.0289660322946,0.010070445277361466
2005.1087702081822,0.0092982208073282054
2006.1885743840699,0.0088566258734508151
2007.2683785599575,0.0091692141205114829
2008.3481827358451,0.010132272242327749
2009.4279869117327,0.0096660513352385593
2010.5077910876203,0.0094664408697918354
2011.5875952635079,0.010201987483202684
2012.6673994393955,0.011707653520415674
2013.7472036152831,0.011560260238118155
2014.8270077911707,0.010583704340951605
2015.9068119670583,0.010064434480632876
2016.9866161429459,0.010359365843553937
2018.0664203188335,0.010642597383603477
2019.1462244947211,0.011644384863063496
2020.2260286706087,0.012055369781013802
2021.3058328464963,0.01215276451936294
2022.3856370223839,0.011309044322758215
2023.4654411982715,0.01053754197471686
2024.5452453741591,0.011482756044842109
2025.6250495500467,0.013431217030537674
2026.7048537259343,0.012967661038515831
2027.7846579018219,0.011076737960714806
2028.8644620777095,0.0093019721425614543
2029.9442662535971,0.0088388488997967127
2031.0240704294847,0.010308817462493172
2032.1038746053723,0.011058782172235762
2033.1836787812599,0.0099865357068541442
2034.2634829571475,0.0089370428984662745
2035.3432871330351,0.0090633024558672611
2036.4230913089227,0.010076517877095431
2037.5028954848103,0.010941123384044167
2038.5826996606979,0.010796197968460168
2039.6625038365855,0.0106338990359935
2040.7423080124731,0.010856285784875816
2041.8221121883607,0.010941657621481955
2042.9019163642483,0.011296706738343574
2043.9817205401359,0.011582568203157211
2045.0615247160235,0.010927829596661699
2046.1413288919111,0.010270085341553001
2047.2211330677987,0.0097885602069792237
2048.3009372436863,0.010397354052174769
2049.380741419574,0.010921366622727177
2050.4605455954616,0.010474622429960624
2051.5403497713492,0.010325457834024564
2052.6201539472368,0.011070785817217694
2053.6999581231244,0.011465984895458697
2054.779762299012,0.011971316456784233
2055.8595664748996,0.011734002809064698
2056.9393706507872,0.011407396916669419
2058.0191748266748,0.010301244951182476
2059.0989790025624,0.010215571628154674
2060.17878317845,0.010412257851429234
2061.2585873543376,0.010895504537545515
2062.3383915302252,0.010641475927309582
2063.4181957061128,0.010072253977553864
2064.4979998820004,0.010111945519684839
2065.577804057888,0.01048074380622801
2066.6576082337756,0.009471819649235786
2067.7374124096632,0.0087894415563227069
2068.8172165855508,0.0083384029021932229
2069.8970207614384,0.0084017185795064002
2070.976824937326,0.0088199211261574852
2072.0566291132136,0.0098650497237079988
2073.1364332891012,0.011539610114473707
2074.2162374649888,0.012496673510921185
2075.2960416408764,0.012389617924810274
2076.375845816764,0.011227478753619957
2077.4556499926516,0.011281154630956924
2078.5354541685392,0.011374512144643668
2079.6152583444268,0.010848638890750838
2080.6950625203144,0.0098441868161598702
2081.774866696202,0.0096732937676349308
2082.8546708720896,0.0099253965966974236
2083.9344750479772,0.010952226597285807
2085.0142792238648,0.011067638150717925
2086.0940833997524,0.011294233248251196
2087.17388757564,0.01171504881518769
2088.2536917515276,0.011794525642160086
2089.3334959274152,0.011990712369122915
2090.4133001033028,0.012309883242782017
2091.4931042791904,0.011354576923648481
2092.572908455078,0.0090266203485719534
2093.6527126309657,0.008451002942597631
2094.7325168068533,0.008196369127720626
2095.8123209827409,0.010082834887128696
2096.8921251586285,0.011194125976908083
2097.9719293345161,0.011204316749659226
2099.0517335104037,0.010440420742000925
2100.1315376862913,0.010210172566271538
2101.2113418621789,0.0092703330618098094
2102.2911460380665,0.0099509349965208951
2103.3709502139541,0.010192956509198674
2104.4507543898417,0.010173895128610305
2105.5305585657293,0.010458985069003042
2106.6103627416169,0.010788641366344706
2107.6901669175045,0.01140831514329684
2108.7699710933921,0.01162951838548297
2109.8497752692797,0.0107277385558951
2110.9295794451673,0.0099622180587621515
2112.0093836210549,0.010663655079253256
2113.0891877969425,0.011041693297320909
2114.1689919728301,0.012032630406092907
2115.2487961487177,0.011900168294830472
2116.3286003246053,0.011764088144783693
2117.4084045004929,0.011559379152174561
2118.4882086763805,0.011615729204483439
2119.5680128522681,0.011478063871383426
2120.6478170281557,0.011688949101603768
2121.7276212040433,0.011755429763631177
2122.8074253799309,0.011956446202648118
2123.8872295558185,0.011423936971783004
2124.9670337317061,0.011452959805485937
2126.0468379075937,0.011067433105728169
2127.1266420834813,0.010298945592742624
2128.2064462593689,0.0099921104889890821
2129.2862504352565,0.0094765931373069628
2130.3660546111441,0.0087993267085132981
2131.4458587870317,0.0090266119916039955
2132.5256629629193,0.0097036059051102842
2133.6054671388069,0.01060125689275492
2134.6852713146945,0.011074798541165021
2135.7650754905821,0.010421228204685822
2136.8448796664698,0.010485461863384298
2137.9246838423574,0.011287354051103074
2139.004488018245,0.011518872668353049
2140.0842921941326,0.010844602714370424
2141.1640963700202,0.010006506839342098
2142.2439005459078,0.0095726601226469379
2143.3237047217954,0.0098311980887655723
2144.403508897683,0.010005921771669601
2145.4833130735706,0.010180243787730053
2146.5631172494582,0.010926273910839177
2147.6429214253458,0.010946167447563675
2148.7227256012334,0.010347058962424899
2149.802529777121,0.010117219096910554
2150.8823339530086,0.010026753001830575
2151.9621381288962,0.01032313438152887
2153.0419423047838,0.011202555498799501
2154.1217464806714,0.011139913518407464
2155.201550656559,0.011843211077312531
2156.2813548324466,0.012635633641706754
2157.3611590083342,0.011822667207966594
2158.4409631842218,0.010145878443967988
2159.5207673601094,0.0088311532899092091
2160.600571535997,0.0080063720788599163
2161.6803757118846,0.0088821768705417293
2162.7601798877722,0.0097378539454680869
2163.8399840636598,0.0096778727860699285
2164.9197882395474,0.009624558146459062
2165.999592415435,0.0098678141718423727
2167.0793965913226,0.010084588932354329
2168.1592007672102,0.010490473187686899
2169.2390049430978,0.010682194439747161
2170.3188091189854,0.010379598351081452
2171.398613294873,0.010213668495124558
2172.4784174707606,0.010851891709253807
2173.5582216466482,0.011307435142993287
2174.6380258225358,0.012066798294611046
2175.7178299984234,0.011924802379322827
2176.797634174311,0.010878259745695593
2177.8774383501986,0.011192955743845628
2178.9572425260862,0.011924384952232482
2180.0370467019738,0.0121883016321024
2181.1168508778615,0.012578521624638992
2182.1966550537491,0.011324897454536969
2183.2764592296367,0.010766702838690074
2184.3562634055243,0.010841857885703616
2185.4360675814119,0.010512727526334826
2186.5158717572995,0.010826348977154883
2187.5956759331871,0.010522085591596248
2188.6754801090747,0.0097582438406487639
2189.7552842849623,0.010206076113255523
2190.8350884608499,0.010249106773975669
2191.9148926367375,0.010042014745430839
2192.9946968126251,0.010193047289377127
2194.0745009885127,0.0098090626933133255
2195.1543051644003,0.010206435621351215
2196.2341093402879,0.011661943493711554
2197.3139135161755,0.010840701730890643
2198.3937176920631,0.0097051388912206236
2199.4735218679507,0.0089761725233780572
2200.5533260438383,0.0087413752281329648
2201.6331302197259,0.0098211623346511016
2202.7129343956135,0.011722589471739637
2203.7927385715011,0.011333180913619343
2204.8725427473887,0.01110041687800453
2205.9523469232763,0.010567657448303541
2207.0321510991639,0.0098205600075323626
2208.1119552750515,0.010246864555853457
2209.1917594509391,0.01105160367675217
2210.2715636268267,0.011155443408358702
2211.3513678027143,0.010915758573454996
2212.4311719786019,0.010207684446481454
2213.5109761544895,0.0093018281069221758
2214.5907803303771,0.0094441390916449163
2215.6705845062647,0.0094106274627532727
2216.7503886821523,0.0096627720027037678
2217.8301928580399,0.010399463213290038
2218.9099970339275,0.011395957646339978
2219.9898012098151,0.011449609013039642
2221.0696053857027,0.010521325310326134
2222.1494095615903,0.0092334192280989456
2223.2292137374779,0.0087047080963700407
2224.3090179133656,0.0093053972417909969
2225.3888220892532,0.0098603521753245355
2226.4686262651408,0.010363658143055588
2227.5484304410284,0.010717542045845942
2228.628234616916,0.011489667032007539
2229.7080387928036,0.011329053860378665
2230.7878429686912,0.011144621733036923
2231.8676471445788,0.01069643575743694
2232.9474513204664,0.010341457885788224
2234.027255496354,0.011726828044500742
2235.1070596722416,0.012705302523367648
2236.1868638481292,0.012156264810629782
2237.2666680240168,0.011320461787280075
2238.3464721999044,0.011108661753473794
2239.426276375792,0.011729947707641207
2240.5060805516796,0.012881137436324137
2241.5858847275672,0.012134752215036185
2242.6656889034548,0.011248570233192118
2243.7454930793424,0.010966976354781333
2244.82529725523,0.011416166799172548
2245.9051014311176,0.011327189941745105
2246.9849056070052,0.011746319505590243
2248.0647097828928,0.012348085728902794
2249.1445139587804,0.012118756533306768
2250.224318134668,0.011144147902749688
2251.3041223105556,0.010240576108066472
2252.3839264864432,0.0097048399720696225
2253.4637306623308,0.010277354496586514
2254.5435348382184,0.011122688177214384
2255.623339014106,0.010179439115225715
2256.7031431899936,0.0093332373610112221
2257.7829473658812,0.0096228257828628316
2258.8627515417688,0.01006672682344161
2259.9425557176564,0.010533206723806136
2261.022359893544,0.010257735299503761
2262.1021640694316,0.0089665787072451455
2263.1819682453192,0.0094274078930918787
2264.2617724212068,0.010509027107012799
2265.3415765970944,0.010925469948158068
2266.421380772982,0.010465994665715796
2267.5011849488696,0.010501634319366987
2268.5809891247573,0.011426208038364791
2269.6607933006449,0.012527397260213277
2270.7405974765325,0.012095311437412349
2271.8204016524201,0.011372961765372256
2272.9002058283077,0.0103888477018117
2273.9800100041953,0.010706193072039563
2275.0598141800829,0.011517983516770513
2276.1396183559705,0.011811472921559396
2277.2194225318581,0.011288384412441366
2278.2992267077457,0.010980914183596834
2279.3790308836333,0.010518417609700416
2280.4588350595209,0.010975721880590377
2281.5386392354085,0.01220713186333511
2282.6184434112961,0.011986830736396616
2283.6982475871837,0.010706463420762844
2284.7780517630713,0.0090066687762619582
2285.8578559389589,0.0081328043321407754
2286.9376601148465,0.0084817490090665984
2288.0174642907341,0.0089996562997643453
2289.0972684666217,0.0086394865376912128
2290.1770726425093,0.0091050622700922911
2291.2568768183969,0.0095991724191585963
2292.3366809942845,0.010210422138285975
2293.4164851701721,0.0099295421656996584
2294.4962893460597,0.0092508408337724952
2295.5760935219473,0.0094156034448408185
2296.6558976978349,0.01044055182644895
2297.7357018737225,0.011430675901341473
2298.8155060496101,0.011741485386431183
2299.8953102254977,0.011321592391302244
2300.9751144013853,0.010719203049211623
2302.0549185772729,0.010062384931936794
2303.1347227531605,0.010027403887481592
2304.2145269290481,0.010699129632268684
2305.2943311049357,0.010849276885793934
2306.3741352808233,0.010820840254619154
2307.4539394567109,0.010346036954559577
2308.5337436325985,0.0098615676975779849
2309.6135478084861,0.010250253556486899
2310.6933519843737,0.0099168480897152463
2311.7731561602614,0.0093106111759462158
2312.852960336149,0.009783423497650023
2313.9327645120366,0.010087305325069938
2315.0125686879242,0.010016772091592574
2316.0923728638118,0.0093097362559029714
2317.1721770396994,0.0087308163030771282
2318.251981215587,0.0096621726763533988
2319.3317853914746,0.011320353085787972
2320.4115895673622,0.011714339929958529
2321.4913937432498,0.011738506198121074
2322.5711979191374,0.011935997521665308
2323.651002095025,0.012931979286202001
2324.7308062709126,0.014241902317563454
2325.8106104468002,0.01469418354281926
2326.8904146226878,0.015125202340272844
2327.9702187985754,0.015748762195598155
2329.050022974463,0.016275553291826145
2330.1298271503506,0.016072748658081705
2331.2096313262382,0.015262759716928444
2332.2894355021258,0.013497539796302489
2333.3692396780134,0.012125841818238604
2334.449043853901,0.010916211532619211
2335.5288480297886,0.010952861633464251
2336.6086522056762,0.011152992208882646
2337.6884563815638,0.010876779484440564
2338.7682605574514,0.010015590651141255
2339.848064733339,0.0094167295174653453
2340.9278689092266,0.0094615478953836638
2342.0076730851142,0.0091028556348531665
2343.0874772610018,0.0076161519415466937
2344.1672814368894,0.0068275308422624369
2345.247085612777,0.0081923649572424352
2346.3268897886646,0.0095796187356695702
2347.4066939645522,0.010474886660299089
2348.4864981404398,0.0093688910412321226
2349.5663023163274,0.0089018131090763675
2350.646106492215,0.010268718766387656
2351.7259106681026,0.011251133098377173
2352.8057148439902,0.010949823937343329
2353.8855190198778,0.01021601266461819
2354.9653231957654,0.0093703893540574654
2356.0451273716531,0.0096940211230871626
2357.1249315475407,0.010256010088478333
2358.2047357234283,0.010736086031440779
2359.2845398993159,0.011279016117368701
2360.3643440752035,0.01135064135005449
2361.4441482510911,0.011262752223115046
2362.5239524269787,0.011601084575891442
2363.6037566028663,0.012015783602255529
2364.6835607787539,0.011970583444754481
2365.7633649546415,0.011388697424922465
2366.8431691305291,0.010966086988038942
2367.9229733064167,0.011014693790177705
2369.0027774823043,0.011106856554485867
2370.0825816581919,0.011608703562962517
2371.1623858340795,0.011875826322193285
2372.2421900099671,0.011727763266995152
2373.3219941858547,0.011505684210346029
2374.4017983617423,0.01078157893739169
2375.4816025376299,0.00930672390880047
2376.5614067135175,0.0086900338097686686
2377.6412108894051,0.0089296184469508533
2378.7210150652927,0.010321941387909287
2379.8008192411803,0.010484893354526265
2380.8806234170679,0.007942210299183617
2381.9604275929555,0.0093784786116076074
2383.0402317688431,0.017980552680105542
2384.1200359447307,0.026458969124317045
2385.1998401206183,0.035361032342208228
2386.2796442965059,0.043590520547690262
2387.3594484723935,0.044848178353210304
2388.4392526482811,0.038527674875405316
2389.5190568241687,0.025358982783664462
2390.5988610000563,0.0
