200.23535860000001,0.090311756450932992
201.54383937868022,0.083225139743477075
202.85232015736042,0.075475432050223321
204.16080093604063,0.064091981588072999
205.46928171472084,0.054895414816915532
206.77776249340104,0.062528309575169416
208.08624327208125,0.07549170337409318
209.39472405076145,0.07927132431214079
210.70320482944166,0.074276462222606046
212.01168560812187,0.059506539331071993
213.32016638680207,0.047044940770620478
214.62864716548228,0.04926890488952728
215.93712794416248,0.057235660047536344
217.24560872284269,0.059300802639371701
218.5540895015229,0.077926251168461663
219.8625702802031,0.094285824468374163
221.17105105888331,0.096978916894883513
222.47953183756351,0.096769652377942106
223.78801261624372,0.092990892344693474
225.09649339492393,0.091855166148415726
226.40497417360413,0.10454175006335709
227.71345495228434,0.11404826365571157
229.02193573096454,0.11746051187086227
230.33041650964475,0.11649051091710751
231.63889728832496,0.11240412519112333
232.94737806700516,0.10846058813938445
234.25585884568537,0.10804353888944182
235.56433962436557,0.1068220600160717
236.87282040304578,0.094735381978463373
238.18130118172598,0.083701128482920301
239.48978196040619,0.08018837854442494
240.7982627390864,0.081941359969335936
242.1067435177666,0.082482954880546536
243.41522429644681,0.07722571658074609
244.72370507512701,0.067398573735446096
246.03218585380722,0.067614911786579163
247.34066663248743,0.078782366107112506
248.64914741116763,0.084447167020675493
249.95762818984784,0.079241675578408832
251.26610896852804,0.070297531480839337
252.57458974720825,0.068737127401953563
253.88307052588846,0.078772949326309571
255.19155130456866,0.08905985896433527
256.50003208324887,0.0952759938044207
257.80851286192905,0.099579827073836391
259.11699364060922,0.10601147797946996
260.4254744192894,0.1075874905180064
261.73395519796958,0.10980154837849793
263.04243597664976,0.12263209484941218
264.35091675532993,0.1480812008544676
265.65939753401011,0.17822531607131056
266.96787831269029,0.20009669884269904
268.27635909137047,0.20841056507666689
269.58483987005064,0.2190445719447662
270.89332064873082,0.24304435715024486
272.201801427411,0.28217469616233604
273.51028220609118,0.32268298752970692
274.81876298477135,0.35018002804364795
276.12724376345153,0.36356407315431566
277.43572454213171,0.38188272996193423
278.74420532081189,0.4013614626614424
280.05268609949206,0.41332680053868881
281.36116687817224,0.41633645493572807
282.66964765685242,0.41272733115097465
283.9781284355326,0.40743878540721618
285.28660921421277,0.39873723989958376
286.59508999289295,0.37530736153236527
287.90357077157313,0.3583000112310723
289.21205155025331,0.34226418899902145
290.52053232893348,0.31528553466808923
291.82901310761366,0.27931476172893077
293.13749388629384,0.24093325276980515
294.44597466497402,0.21412954233216722
295.75445544365419,0.19859107010839649
297.06293622233437,0.18050812062563507
298.37141700101455,0.17211228463581368
299.67989777969473,0.16270777234021944
300.9883785583749,0.15662520637232577
302.29685933705508,0.15831748287430228
303.60534011573526,0.16145544519178762
304.91382089441544,0.17266821456762185
306.22230167309561,0.17321273878608576
307.53078245177579,0.15457112695196407
308.83926323045597,0.14511050191151775
310.14774400913615,0.15190091973891498
311.45622478781632,0.16568132793593901
312.7647055664965,0.1742484611859042
314.07318634517668,0.16505593562186704
315.38166712385686,0.15694610925477068
316.69014790253703,0.15942194782910124
317.99862868121721,0.16674698688289391
319.30710945989739,0.16782132250242299
320.61559023857757,0.16115320440877895
321.92407101725775,0.15060266390976104
323.23255179593792,0.13530171416783213
324.5410325746181,0.12035761314529936
325.84951335329828,0.15479141619437428
327.15799413197846,0.18702533248614617
328.46647491065863,0.188771373746458
329.77495568933881,0.15536950448774331
331.08343646801899,0.10634945178568755
332.39191724669917,0.084997648227151085
333.70039802537934,0.1054454319682705
335.00887880405952,0.11075702328715524
336.3173595827397,0.12102714730103213
337.62584036141988,0.12865516665229648
338.93432114010005,0.13207403355330669
340.24280191878023,0.13506181154720259
341.55128269746041,0.14050672927217556
342.85976347614059,0.1453668478018211
344.16824425482076,0.15410217011185681
345.47672503350094,0.16959797946970179
346.78520581218112,0.18740769755884262
348.0936865908613,0.20246421498239298
349.40216736954147,0.20397239305715786
350.71064814822165,0.20083772678936176
352.01912892690183,0.21025524165839016
353.32760970558201,0.23437442581858908
354.63609048426218,0.26138810683802655
355.94457126294236,0.28493059326629921
357.25305204162254,0.29868052598481248
358.56153282030272,0.30860661058905536
359.87001359898289,0.31019321632007363
361.17849437766307,0.31545691343062227
362.48697515634325,0.31611638709702938
363.79545593502343,0.31290122419832062
365.1039367137036,0.31373236771408924
366.41241749238378,0.31991048138653577
367.72089827106396,0.32948469595859847
369.02937904974414,0.33075274756768897
370.33785982842431,0.30587589558250733
371.64634060710449,0.28242705753749736
372.95482138578467,0.27808698073424759
374.26330216446485,0.27369523000634483
375.57178294314502,0.25823482272379877
376.8802637218252,0.23388137321246569
378.18874450050538,0.21086614037783571
379.49722527918556,0.19672252102442617
380.80570605786573,0.18700486592201629
382.11418683654591,0.1822438806901848
383.42266761522609,0.17905604215175827
384.73114839390627,0.16767582609893539
386.03962917258644,0.14670672817284791
387.34810995126662,0.13088698054909312
388.6565907299468,0.12579171337540582
389.96507150862698,0.1303458758070889
391.27355228730715,0.13083649403558073
392.58203306598733,0.1257146357710397
393.89051384466751,0.11783558462388954
395.19899462334769,0.1102462658287082
396.50747540202786,0.10138491025415773
397.81595618070804,0.10184895273843775
399.12443695938822,0.11419208179696118
400.4329177380684,0.12434018390296619
401.74139851674857,0.12258721221017733
403.04987929542875,0.11956391980914596
404.35836007410893,0.12226440916708933
405.66684085278911,0.13202877511366312
406.97532163146928,0.14268602443013997
408.28380241014946,0.14363414548106954
409.59228318882964,0.1404675916726956
410.90076396750982,0.14282665581500589
412.20924474619,0.14053402024152623
413.51772552487017,0.14552071247399725
414.82620630355035,0.16105402638719832
416.13468708223053,0.17741122646987123
417.44316786091071,0.19147201499692459
418.75164863959088,0.19271370477407784
420.06012941827106,0.18534220249802907
421.36861019695124,0.18711999846864732
422.67709097563142,0.19358278223390227
423.98557175431159,0.20605536189999585
425.29405253299177,0.21559757073689775
426.60253331167195,0.21639176530149301
427.91101409035213,0.21907257841225691
429.2194948690323,0.22672902736989417
430.52797564771248,0.23188902816513901
431.83645642639266,0.22975863773676169
433.14493720507284,0.22482604951658439
434.45341798375301,0.22829573888164165
435.76189876243319,0.23507995087399183
437.07037954111337,0.24089529810252885
438.37886031979355,0.24527906927260321
439.68734109847372,0.25245338828106095
440.9958218771539,0.26787909282008981
442.30430265583408,0.26954855410538647
443.61278343451426,0.26011929526263788
444.92126421319443,0.25104460837769604
446.22974499187461,0.24766350301657364
447.53822577055479,0.25201079203435162
448.84670654923497,0.2582173677695177
450.15518732791514,0.25492101458477723
451.46366810659532,0.25320661464445465
452.7721488852755,0.24367573272783186
454.08062966395568,0.22292759163886242
455.38911044263585,0.20559990354858626
456.69759122131603,0.19807109248180527
458.00607199999621,0.19545035712360925
459.31455277867639,0.18809520144788563
460.62303355735656,0.16918676769379776
461.93151433603674,0.14905940513992649
463.23999511471692,0.14338268914006227
464.5484758933971,0.14152750312947865
465.85695667207727,0.13371712974941866
467.16543745075745,0.1144988621086397
468.47391822943763,0.097449430251432462
469.78239900811781,0.092630202839031353
471.09087978679798,0.087628042126608782
472.39936056547816,0.079781299260219721
473.70784134415834,0.070429228928060195
475.01632212283852,0.066333930860166007
476.32480290151869,0.07427609929291519
477.63328368019887,0.072432424491509481
478.94176445887905,0.063519895148398647
480.25024523755923,0.051892763868882349
481.5587260162394,0.039133567731674861
482.86720679491958,0.033592842255571798
484.17568757359976,0.028968043619788861
485.48416835227994,0.025525790508963295
486.79264913096011,0.034575990306728553
488.10112990964029,0.04297500988255485
489.40961068832047,0.042809279198450255
490.71809146700065,0.03794190417173654
492.02657224568082,0.029854700819679666
493.335053024361,0.030203553959452421
494.64353380304118,0.038022880115676581
495.95201458172136,0.033193723042247998
497.26049536040153,0.032324152679536623
498.56897613908171,0.035447675769189703
499.87745691776189,0.03207513873327969
501.18593769644207,0.024454627139343522
502.49441847512225,0.010404674541176079
503.80289925380242,0.005292021679551482
505.1113800324826,0.012848221300235678
506.41986081116278,0.010935371619743509
507.72834158984296,0.01033188275959211
509.03682236852313,0.0091223712158771258
510.34530314720331,0.0077186126258783514
511.65378392588349,0.014207943757445307
512.96226470456372,0.020360802150123071
514.2707454832439,0.027615469917176432
515.57922626192408,0.030187298841129792
516.88770704060425,0.025693191122003845
518.19618781928443,0.020309954307313492
519.50466859796461,0.018356947575489575
520.81314937664479,0.019325233861731628
522.12163015532497,0.01789855260516934
523.43011093400514,0.025496000834362542
524.73859171268532,0.042477168086410784
526.0470724913655,0.056414431641883506
527.35555327004568,0.056533809291904713
528.66403404872585,0.053055177390251076
529.97251482740603,0.052285531011773856
531.28099560608621,0.060893854304796116
532.58947638476639,0.067394818439998741
533.89795716344656,0.072692929629314229
535.20643794212674,0.071302441162646932
536.51491872080692,0.076284084426323368
537.8233994994871,0.082307749417944581
539.13188027816727,0.087263729536278603
540.44036105684745,0.092825970695305349
541.74884183552763,0.098242443407869223
543.05732261420781,0.096100920731323217
544.36580339288798,0.09652954438004302
545.67428417156816,0.098234562111020121
546.98276495024834,0.097205189666207822
548.29124572892852,0.097032972263013925
549.59972650760869,0.092913633694721068
550.90820728628887,0.087631218286372908
552.21668806496905,0.091816043693115329
553.52516884364923,0.10545461922651948
554.8336496223294,0.10673696505422438
556.14213040100958,0.098212719611767044
557.45061117968976,0.086067253509453906
558.75909195836994,0.086146191077152698
560.06757273705011,0.095034536588688351
561.37605351573029,0.099135720700814264
562.68453429441047,0.096405607378786937
563.99301507309065,0.10042024381578796
565.30149585177082,0.10354663985144788
566.609976630451,0.10996294901228838
567.91845740913118,0.11309429253052829
569.22693818781136,0.11484540877850141
570.53541896649153,0.12042747438852944
571.84389974517171,0.1311908311940482
573.15238052385189,0.14283063881465391
574.46086130253207,0.15643147796841225
575.76934208121224,0.16498079525755527
577.07782285989242,0.17248732218015753
578.3863036385726,0.17612030533500111
579.69478441725278,0.17914658338326975
581.00326519593295,0.18770279427702227
582.31174597461313,0.20229680346138273
583.62022675329331,0.21462070677872025
584.92870753197349,0.21532309486202172
586.23718831065366,0.21881122935122574
587.54566908933384,0.23728513702102738
588.85414986801402,0.25867930100566916
590.1626306466942,0.27384905892340838
591.47111142537437,0.29363655417104095
592.77959220405455,0.31420292531051597
594.08807298273473,0.34369081200318241
595.39655376141491,0.37173173120479841
596.70503454009508,0.39638997565572553
598.01351531877526,0.4262516410309341
599.32199609745544,0.46756269432750436
600.63047687613562,0.49611475156674945
601.93895765481579,0.524193573073789
603.24743843349597,0.56047229859104641
604.55591921217615,0.60918386437246463
605.86439999085633,0.66068365198388601
607.1728807695365,0.70342515427534913
608.48136154821668,0.72487974133806821
609.78984232689686,0.74844559465599914
611.09832310557704,0.77863151871939051
612.40680388425722,0.80465673539292359
613.71528466293739,0.82006220598858415
615.02376544161757,0.83130961649857538
616.33224622029775,0.83755422037952376
617.64072699897793,0.83954268014974298
618.9492077776581,0.84306651260576038
620.25768855633828,0.83728418843466101
621.56616933501846,0.84020208551820819
622.87465011369864,0.85139371226587801
624.18313089237881,0.8565078473591462
625.49161167105899,0.86134588348866836
626.80009244973917,0.87699841221098485
628.10857322841935,0.89477593984022241
629.41705400709952,0.92658760238689619
630.7255347857797,0.95163128702232369
632.03401556445988,0.96119944215941866
633.34249634314006,0.9732675668039712
634.65097712182023,0.98519201179018245
635.95945790050041,0.98975202017656938
637.26793867918059,0.99229752313749164
638.57641945786077,0.99060231013415589
639.88490023654094,0.97481307307609044
641.19338101522112,0.96262617853806109
642.5018617939013,0.95122108391864613
643.81034257258148,0.94069604862273382
645.11882335126165,0.92689385838929128
646.42730412994183,0.89998742611125337
647.73578490862201,0.85699299438915999
649.04426568730219,0.81793092467340744
650.35274646598236,0.78401022334239512
651.66122724466254,0.75261370841320097
652.96970802334272,0.71238860201682475
654.2781888020229,0.66005738933743541
655.58666958070307,0.60413693415786041
656.89515035938325,0.55846443143248203
658.20363113806343,0.52502840841643694
659.51211191674361,0.49442198172733381
660.82059269542378,0.46830093942715639
662.12907347410396,0.44486195596553785
663.43755425278414,0.42304954808490924
664.74603503146432,0.40553029791684275
666.05451581014449,0.39188474991200983
667.36299658882467,0.37949143297612647
668.67147736750485,0.37679431108260319
669.97995814618503,0.3786169996181511
671.2884389248652,0.3863414409267466
672.59691970354538,0.39744209025141464
673.90540048222556,0.41256760804048975
675.21388126090574,0.42713117577588422
676.52236203958591,0.44758630048525666
677.83084281826609,0.4656174242368159
679.13932359694627,0.48778504414402973
680.44780437562645,0.52787167594486417
681.75628515430662,0.57297147195210407
683.0647659329868,0.61630618505422763
684.37324671166698,0.65006579332410441
685.68172749034716,0.67603386112823194
686.99020826902733,0.70659483846319149
688.29868904770751,0.72786604938808119
689.60716982638769,0.74087857244464961
690.91565060506787,0.7583611958552513
692.22413138374804,0.77177889333994854
693.53261216242822,0.77859478781963432
694.8410929411084,0.7691283010726272
696.14957371978858,0.75702972701739224
697.45805449846875,0.75942776450894633
698.76653527714893,0.75716896922460097
700.07501605582911,0.73714189891727466
701.38349683450929,0.70156673210021259
702.69197761318947,0.68053827387078913
704.00045839186964,0.67901727530581113
705.30893917054982,0.67865359277260007
706.61741994923,0.66689418213701301
707.92590072791018,0.64320214330121273
709.23438150659035,0.61375901927537957
710.54286228527053,0.58842038794068918
711.85134306395071,0.55075972723788247
713.15982384263089,0.51742802064576299
714.46830462131106,0.49679518451144877
715.77678539999124,0.47849114643307877
717.08526617867142,0.44877314906144145
718.3937469573516,0.40603480332153435
719.70222773603177,0.34946928754116602
721.01070851471195,0.30909208358413137
722.31918929339213,0.29326513630679624
723.62767007207231,0.27937249667164593
724.93615085075248,0.25299160537421178
726.24463162943266,0.22075028219356257
727.55311240811284,0.19685361133939466
728.86159318679302,0.19472935351485859
730.17007396547319,0.19412252424422546
731.47855474415337,0.17183534385431409
732.78703552283355,0.14984229241104877
734.09551630151373,0.14035356941131938
735.4039970801939,0.14172528159277067
736.71247785887408,0.13644530540336536
738.02095863755426,0.11322211061481158
739.32943941623444,0.09923696168263027
740.63792019491461,0.1011197880682153
741.94640097359479,0.10615731227816
743.25488175227497,0.11077776641409827
744.56336253095515,0.10368936514067778
745.87184330963532,0.087651434066777528
747.1803240883155,0.085255175044015419
748.48880486699568,0.080827753033874392
749.79728564567586,0.078460486385099379
751.10576642435603,0.073687611877246068
752.41424720303621,0.064893270636153327
753.72272798171639,0.06410454934413401
755.03120876039657,0.068997871261605392
756.33968953907674,0.067395256128104791
757.64817031775692,0.065413637858296556
758.9566510964371,0.064807844156831731
760.26513187511728,0.068877847559573893
761.57361265379745,0.079536829764151495
762.88209343247763,0.082446620040821789
764.19057421115781,0.083155242111715003
765.49905498983799,0.078938368770037237
766.80753576851816,0.075302136215800453
768.11601654719834,0.079619192248148993
769.42449732587852,0.086913997105428215
770.7329781045587,0.092094522801697831
772.04145888323887,0.093996685802368807
773.34993966191905,0.095255829969893735
774.65842044059923,0.10294151023819124
775.96690121927941,0.11191142057320833
777.27538199795958,0.11573061674033676
778.58386277663976,0.10213825756402421
779.89234355531994,0.096039078056601973
781.20082433400012,0.11159131332504309
782.50930511268029,0.133689461881701
783.81778589136047,0.14328535468833156
785.12626667004065,0.13906170152381897
786.43474744872083,0.13265461887551208
787.743228227401,0.14608812981325206
789.05170900608118,0.17035328171171391
790.36018978476136,0.21507292343801038
791.66867056344154,0.28312400266236776
792.97715134212172,0.36195520447043594
794.28563212080189,0.4393422049182133
795.59411289948207,0.50766661120683465
796.90259367816225,0.56243474052070086
798.21107445684243,0.59857967996718608
799.5195552355226,0.61928192961281836
800.82803601420278,0.63056186868154729
802.13651679288296,0.63436935428594909
803.44499757156314,0.62671396684592107
804.75347835024331,0.6027817684826593
806.06195912892349,0.57061002360996083
807.37043990760367,0.54001728255018311
808.67892068628385,0.50246285324028683
809.98740146496402,0.46429255934001051
811.2958822436442,0.4230429127753384
812.60436302232438,0.37106202364736424
813.91284380100456,0.31755916558644531
815.22132457968473,0.27421460821597948
816.52980535836491,0.23287889081320742
817.83828613704509,0.20308738495070836
819.14676691572527,0.1729241784500429
820.45524769440544,0.14929104128865978
821.76372847308562,0.14092077179277041
823.0722092517658,0.14618814729707008
824.38069003044598,0.15207464220175992
825.68917080912615,0.15971498666329689
826.99765158780633,0.16332300691353158
828.30613236648651,0.16644409804145921
829.61461314516669,0.16996502790720711
830.92309392384686,0.17505038836875972
832.23157470252704,0.18432430670066327
833.54005548120722,0.19368933707668368
834.8485362598874,0.19886383894628445
836.15701703856757,0.19381352845644167
837.46549781724775,0.18620566869067171
838.77397859592793,0.18784318035771891
840.08245937460811,0.19512948017658874
841.39094015328828,0.19549337123132102
842.69942093196846,0.18970304333902185
844.00790171064864,0.18779960990893374
845.31638248932882,0.1975776071394699
846.62486326800899,0.21311024359710617
847.93334404668917,0.22478329180485446
849.24182482536935,0.23939941159338379
850.55030560404953,0.26014197325431393
851.8587863827297,0.28538238343206834
853.16726716140988,0.30610174993903599
854.47574794009006,0.31865301615787978
855.78422871877024,0.32532679427340611
857.09270949745041,0.33940756080625201
858.40119027613059,0.34468618353191643
859.70967105481077,0.34464705651530037
861.01815183349095,0.34373219019290457
862.32663261217112,0.34044738360992488
863.6351133908513,0.33296126436506823
864.94359416953148,0.31908775459124994
866.25207494821166,0.30591889958038582
867.56055572689183,0.29637662566129358
868.86903650557201,0.28275297817593703
870.17751728425219,0.26434508586127603
871.48599806293237,0.24313848178589778
872.79447884161254,0.22377292128327833
874.10295962029272,0.21132978754430229
875.4114403989729,0.19899651229417351
876.71992117765308,0.18919319170706589
878.02840195633325,0.18089237082817691
879.33688273501343,0.17512933491758981
880.64536351369361,0.17004172848382818
881.95384429237379,0.16147580069929998
883.26232507105397,0.13959977215987682
884.57080584973414,0.12669953166715489
885.87928662841432,0.12628430368904997
887.1877674070945,0.13368787467257448
888.49624818577468,0.13999820713170483
889.80472896445485,0.13365989596730282
891.11320974313503,0.12346890673605129
892.42169052181521,0.12796493763881209
893.73017130049539,0.12509283238929489
895.03865207917556,0.12183829522877124
896.34713285785574,0.11720365053004396
897.65561363653592,0.11309336927192909
898.9640944152161,0.11059264559079773
900.27257519389627,0.10642463327780942
901.58105597257645,0.09425056023806648
902.88953675125663,0.087136308266600973
904.19801752993681,0.094739650803605802
905.50649830861698,0.10597976714238125
906.81497908729716,0.10212897477482415
908.12345986597734,0.088789411984855127
909.43194064465752,0.079764297704144171
910.74042142333769,0.076994899748755632
912.04890220201787,0.072455427366052025
913.35738298069805,0.06499196404742856
914.66586375937823,0.064858505223919755
915.9743445380584,0.076669956465797579
917.28282531673858,0.091116871604019989
918.59130609541876,0.086558739391678366
919.89978687409894,0.077387199447253682
921.20826765277911,0.075221285009959712
922.51674843145929,0.080711578981525325
923.82522921013947,0.08685524768387079
925.13370998881965,0.086989751007729474
926.44219076749982,0.073229197305220789
927.75067154618,0.07743900720530672
929.05915232486018,0.084970649372714105
930.36763310354036,0.089014008392072588
931.67611388222053,0.087503703083285311
932.98459466090071,0.081478937435378665
934.29307543958089,0.075762021132446233
935.60155621826107,0.089882773185571738
936.91003699694124,0.096886732478704343
938.21851777562142,0.10402222339348106
939.5269985543016,0.10884767892491898
940.83547933298178,0.1097065951910777
942.14396011166195,0.11271070860122921
943.45244089034213,0.12739753117061495
944.76092166902231,0.13685593683941744
946.06940244770249,0.13894820280606482
947.37788322638266,0.1388404861732743
948.68636400506284,0.1415488962481424
949.99484478374302,0.14979576091679464
951.3033255624232,0.16258562882929944
952.61180634110337,0.15982473654721574
953.92028711978355,0.15449510139693984
955.22876789846373,0.17151597939683547
956.53724867714391,0.21689451542087887
957.84572945582408,0.27873413893896576
959.15421023450426,0.33900879433307785
960.46269101318444,0.38677134886491499
961.77117179186462,0.42978100402682584
963.07965257054479,0.4604322872719302
964.38813334922497,0.48206306013311973
965.69661412790515,0.49013592778175519
967.00509490658533,0.48829623375639969
968.3135756852655,0.47568275975448848
969.62205646394568,0.44643660541674768
970.93053724262586,0.4107997359598437
972.23901802130604,0.38320990236843155
973.54749879998622,0.35669319204905447
974.85597957866639,0.33362525737498017
976.16446035734657,0.29955066834367622
977.47294113602675,0.25123924853463386
978.78142191470693,0.20459726222214294
980.0899026933871,0.17278119308705606
981.39838347206728,0.14728805841760501
982.70686425074746,0.12226885237589973
984.01534502942764,0.089778516732851393
985.32382580810781,0.067949546959164692
986.63230658678799,0.067417707608302055
987.94078736546817,0.075558602511463194
989.24926814414835,0.074895063896971231
990.55774892282852,0.072415717227314338
991.8662297015087,0.06759754743955157
993.17471048018888,0.071605991059236734
994.48319125886906,0.077980157179534396
995.79167203754923,0.080512342479259494
997.10015281622941,0.080109355112961425
998.40863359490959,0.071826387494633326
999.71711437358977,0.073247505723096892
1001.0255951522699,0.084595911459454054
1002.3340759309501,0.09651033593228063
1003.6425567096303,0.10544099587761097
1004.9510374883105,0.097330378371484491
1006.2595182669907,0.078196887344228708
1007.5679990456708,0.074046786684927882
1008.876479824351,0.078823433387203337
1010.1849606030312,0.09279940526074619
1011.4934413817114,0.10238030834718551
1012.8019221603915,0.096423503922170084
1014.1104029390717,0.088321326165807734
1015.4188837177519,0.086162546126284822
1016.7273644964321,0.0876409664166687
1018.0358452751123,0.094132251893000465
1019.3443260537924,0.098122186419529162
1020.6528068324726,0.10073758602574537
1021.9612876111528,0.1105856180344981
1023.269768389833,0.12029095595825495
1024.5782491685131,0.12743579850592215
1025.8867299471933,0.13633034312050971
1027.1952107258735,0.14978341331892811
1028.5036915045537,0.17964086103195143
1029.8121722832338,0.21264070933892848
1031.120653061914,0.24239757803182194
1032.4291338405942,0.27692209873244378
1033.7376146192744,0.31173136153138703
1035.0460953979546,0.34279218139198608
1036.3545761766347,0.36797383898711816
1037.6630569553149,0.38283749188284016
1038.9715377339951,0.40183227419881812
1040.2800185126753,0.41208650323826368
1041.5884992913554,0.39827541175648268
1042.8969800700356,0.37566976620550796
1044.2054608487158,0.34963067765089223
1045.513941627396,0.32397029688586587
1046.8224224060762,0.30122435847871487
1048.1309031847563,0.26983878486282942
1049.4393839634365,0.24618745226262834
1050.7478647421167,0.22590821328431893
1052.0563455207969,0.19991914853552759
1053.364826299477,0.17749272089156828
1054.6733070781572,0.15958814658390139
1055.9817878568374,0.14890713366610944
1057.2902686355176,0.14920365982600459
1058.5987494141978,0.14539400491107718
1059.9072301928779,0.14159589005582748
1061.2157109715581,0.14011474107936817
1062.5241917502383,0.13920803467477905
1063.8326725289185,0.14071076687119594
1065.1411533075986,0.14459537328528299
1066.4496340862788,0.14729307318175394
1067.758114864959,0.15089795468540776
1069.0665956436392,0.15924128584473143
1070.3750764223194,0.15964171400105603
1071.6835572009995,0.16174755624950249
1072.9920379796797,0.17750245794104877
1074.3005187583599,0.20395520733033012
1075.6089995370401,0.24252238693678255
1076.9174803157202,0.29956342685794207
1078.2259610944004,0.37157609378075557
1079.5344418730806,0.45313629987947285
1080.8429226517608,0.52478043079112013
1082.151403430441,0.57223581551410729
1083.4598842091211,0.60902998792667751
1084.7683649878013,0.64030696807077125
1086.0768457664815,0.65925718337060979
1087.3853265451617,0.65869340005468191
1088.6938073238418,0.63716053936700001
1090.002288102522,0.59921720247592136
1091.3107688812022,0.56193131559856024
1092.6192496598824,0.52279250368570385
1093.9277304385625,0.47771192480866786
1095.2362112172427,0.42997696227213467
1096.5446919959229,0.38739882723365299
1097.8531727746031,0.35138088479210872
1099.1616535532833,0.31640315644089972
1100.4701343319634,0.27924002939031634
1101.7786151106436,0.24816430303816825
1103.0870958893238,0.22167189050419744
1104.395576668004,0.20618529838455937
1105.7040574466841,0.19474602435846222
1107.0125382253643,0.18595409773701263
1108.3210190040445,0.18100736797954675
1109.6294997827247,0.17456998564857212
1110.9379805614049,0.16355254810558878
1112.246461340085,0.15993070240183141
1113.5549421187652,0.15508590721568688
1114.8634228974454,0.14874663463903778
1116.1719036761256,0.1408205571794918
1117.4803844548057,0.1359690748573428
1118.7888652334859,0.13571956130109911
1120.0973460121661,0.13805061176132083
1121.4058267908463,0.13872801581669364
1122.7143075695265,0.1348145510225979
1124.0227883482066,0.1266049855065644
1125.3312691268868,0.12168037049627291
1126.639749905567,0.11827190007439413
1127.9482306842472,0.1203437008137061
1129.2567114629273,0.11746085222463704
1130.5651922416075,0.10737523538903697
1131.8736730202877,0.096304844603397263
1133.1821537989679,0.088238100723380716
1134.4906345776481,0.0787926816899754
1135.7991153563282,0.068906488398142743
1137.1075961350084,0.061967381475558109
1138.4160769136886,0.060936926753448757
1139.7245576923688,0.060207097270656595
1141.0330384710489,0.056003225176948571
1142.3415192497291,0.053607748222015791
1143.6500000284093,0.062303200014015347
1144.9584808070895,0.08017840131207625
1146.2669615857696,0.087389035378009072
1147.5754423644498,0.097242321340792401
1148.88392314313,0.11527884264267228
1150.1924039218102,0.144023372700395
1151.5008847004904,0.17430287560963909
1152.8093654791705,0.19655003808898025
1154.1178462578507,0.21220643646312659
1155.4263270365309,0.23652725373556172
1156.7348078152111,0.25987982115961367
1158.0432885938912,0.27472889782681476
1159.3517693725714,0.28363018105082327
1160.6602501512516,0.28712959704463331
1161.9687309299318,0.28917618874549028
1163.277211708612,0.28329666940439513
1164.5856924872921,0.27320072128686873
1165.8941732659723,0.25639476619717505
1167.2026540446525,0.24191694702103719
1168.5111348233327,0.23510319958357881
1169.8196156020128,0.23439550251872687
1171.128096380693,0.22360747589561164
1172.4365771593732,0.21941710166556863
1173.7450579380534,0.22304670615432268
1175.0535387167336,0.23951618738072977
1176.3620194954137,0.25568290951507078
1177.6705002740939,0.26123607758378309
1178.9789810527741,0.26185610238015106
1180.2874618314543,0.26749732194036235
1181.5959426101344,0.2708465682514048
1182.9044233888146,0.27198773548107819
1184.2129041674948,0.26388228800962038
1185.521384946175,0.25035619430211342
1186.8298657248552,0.23126331231753039
1188.1383465035353,0.20841848303117153
1189.4468272822155,0.1857011060921834
1190.7553080608957,0.16627188518810837
1192.0637888395759,0.14722737495605634
1193.372269618256,0.13216042064255432
1194.6807503969362,0.11672812338158459
1195.9892311756164,0.10036149375839758
1197.2977119542966,0.088734038629332282
1198.6061927329768,0.078521038077027205
1199.9146735116569,0.066886138004313117
1201.2231542903371,0.057459780789900688
1202.5316350690173,0.047357719088125201
1203.8401158476975,0.043490041461671493
1205.1485966263776,0.049641832666343914
1206.4570774050578,0.055635072166249022
1207.765558183738,0.058175421285477036
1209.0740389624182,0.059374341229471148
1210.3825197410983,0.061063846252642155
1211.6910005197785,0.072611614000265959
1212.9994812984587,0.087205928606142263
1214.3079620771389,0.094538802932513849
1215.6164428558191,0.10243547434965385
1216.9249236344992,0.11138799658169514
1218.2334044131794,0.11555600222642408
1219.5418851918596,0.11506809485479313
1220.8503659705398,0.10822790920225792
1222.1588467492199,0.098484231796503285
1223.4673275279001,0.09647434299401339
1224.7758083065803,0.10105211873335367
1226.0842890852605,0.10679845884157885
1227.3927698639407,0.10675011908937496
1228.7012506426208,0.10128187898711047
1230.009731421301,0.099180907437992599
1231.3182121999812,0.10265084474600443
1232.6266929786614,0.10701403806456447
1233.9351737573415,0.10871385901830678
1235.2436545360217,0.10779363843344586
1236.5521353147019,0.10869001290004592
1237.8606160933821,0.12127631386709832
1239.1690968720623,0.12934743715001865
1240.4775776507424,0.12971985896160207
1241.7860584294226,0.13227480660351512
1243.0945392081028,0.13697793713001546
1244.403019986783,0.14771192739624722
1245.7115007654631,0.15879266245129153
1247.0199815441433,0.15775747430058532
1248.3284623228235,0.16026730334185138
1249.6369431015037,0.1713606371917524
1250.9454238801839,0.18445751977701802
1252.253904658864,0.19072488881414368
1253.5623854375442,0.19467919381290111
1254.8708662162244,0.20186694779661346
1256.1793469949046,0.21534490150429933
1257.4878277735847,0.22275374973209217
1258.7963085522649,0.22165078527380275
1260.1047893309451,0.21616388780604118
1261.4132701096253,0.21699084772909549
1262.7217508883055,0.22008164138046693
1264.0302316669856,0.227122090410533
1265.3387124456658,0.23225917029283208
1266.647193224346,0.24386544773786184
1267.9556740030262,0.25417385467101217
1269.2641547817063,0.25309607422116676
1270.5726355603865,0.24795130458871478
1271.8811163390667,0.24813295498540802
1273.1895971177469,0.24961262986985197
1274.498077896427,0.25006114731687346
1275.8065586751072,0.24554315696504098
1277.1150394537874,0.23799666177669221
1278.4235202324676,0.22685751226648873
1279.7320010111478,0.22102847932613401
1281.0404817898279,0.21772206144125872
1282.3489625685081,0.21839895554749608
1283.6574433471883,0.22310884233700029
1284.9659241258685,0.23404186994364129
1286.2744049045486,0.23722414380465862
1287.5828856832288,0.23755705357277673
1288.891366461909,0.23089117070712212
1290.1998472405892,0.2270056505637397
1291.5083280192694,0.2323560543324677
1292.8168087979495,0.24311911573696579
1294.1252895766297,0.24732616079848571
1295.4337703553099,0.24979899540761749
1296.7422511339901,0.25687979830467073
1298.0507319126702,0.26121869235819067
1299.3592126913504,0.27144399583930567
1300.6676934700306,0.27515791146990243
1301.9761742487108,0.27287057945700838
1303.284655027391,0.27355280184034036
1304.5931358060711,0.27950875549102233
1305.9016165847513,0.28184596028065328
1307.2100973634315,0.29198848455465232
1308.5185781421117,0.29311115164976731
1309.8270589207918,0.29214777512339141
1311.135539699472,0.29008405388494629
1312.4440204781522,0.28201257171138705
1313.7525012568324,0.27489551379846922
1315.0609820355126,0.27776221229581333
1316.3694628141927,0.27946938897495199
1317.6779435928729,0.27555614135722589
1318.9864243715531,0.26775350619080956
1320.2949051502333,0.26001373462785321
1321.6033859289134,0.25787463462903071
1322.9118667075936,0.25943857406483889
1324.2203474862738,0.2531593175995403
1325.528828264954,0.24310089235796278
1326.8373090436341,0.23652268421358688
1328.1457898223143,0.23455171724593993
1329.4542706009945,0.24147024776101753
1330.7627513796747,0.24148219420741199
1332.0712321583549,0.23388533486042881
1333.379712937035,0.22511749170912929
1334.6881937157152,0.21692460921628523
1335.9966744943954,0.2130680586185961
1337.3051552730756,0.21906793365786004
1338.6136360517557,0.23126318336098989
1339.9221168304359,0.25745598387106855
1341.2305976091161,0.29028626467423629
1342.5390783877963,0.31886407678126355
1343.8475591664765,0.34310464921231371
1345.1560399451566,0.36204802598558894
1346.4645207238368,0.37352142808518407
1347.773001502517,0.37640802527122286
1349.0814822811972,0.37438382605044357
1350.3899630598773,0.37122571846829111
1351.6984438385575,0.3580261487586634
1353.0069246172377,0.3335284780318627
1354.3154053959179,0.30924748828838533
1355.6238861745981,0.28957092706293486
1356.9323669532782,0.27452850261330225
1358.2408477319584,0.25350184899087241
1359.5493285106386,0.22570533845123078
1360.8578092893188,0.20186833650233701
1362.1662900679989,0.17955090413457306
1363.4747708466791,0.15483941548642355
1364.7832516253593,0.13472298772123742
1366.0917324040395,0.11896339899585859
1367.4002131827197,0.1085515667088477
1368.7086939613998,0.098792864640473058
1370.01717474008,0.093407865638126197
1371.3256555187602,0.091715508982141467
1372.6341362974404,0.09188287168364033
1373.9426170761205,0.086954717184107327
1375.2510978548007,0.080425388140396986
1376.5595786334809,0.080205765494170189
1377.8680594121611,0.0885925164981195
1379.1765401908413,0.097003592754015516
1380.4850209695214,0.097628569037112006
1381.7935017482016,0.084532354549588226
1383.1019825268818,0.072377112177916397
1384.410463305562,0.072585125808860437
1385.7189440842421,0.082197248118400915
1387.0274248629223,0.08830748359565764
1388.3359056416025,0.088000235248843914
1389.6443864202827,0.083543964750414659
1390.9528671989628,0.080187562914439584
1392.261347977643,0.075259283086010015
1393.5698287563232,0.072953104941459845
1394.8783095350034,0.070734536316943999
1396.1867903136836,0.064808683897018271
1397.4952710923637,0.057740906136093721
1398.8037518710439,0.05545279638030394
1400.1122326497241,0.060353856553189485
1401.4207134284043,0.066601071992182029
1402.7291942070844,0.069471920905705364
1404.0376749857646,0.069855450900875082
1405.3461557644448,0.078869745799410071
1406.654636543125,0.084001262246593433
1407.9631173218052,0.087936942165692714
1409.2715981004853,0.091159174514114719
1410.5800788791655,0.09271674625585466
1411.8885596578457,0.098802346955771475
1413.1970404365259,0.11292611494416753
1414.505521215206,0.12501605122801043
1415.8140019938862,0.13917475414498023
1417.1224827725664,0.14766833498150553
1418.4309635512466,0.15253213294249801
1419.7394443299268,0.17211065647247425
1421.0479251086069,0.19469469160289662
1422.3564058872871,0.22003773844489474
1423.6648866659673,0.24001075699240432
1424.9733674446475,0.25754196716420047
1426.2818482233276,0.269668357155532
1427.5903290020078,0.28179318326302499
1428.898809780688,0.2885771880616172
1430.2072905593682,0.29831563035079628
1431.5157713380484,0.31035565881980115
1432.8242521167285,0.3301832226828193
1434.1327328954087,0.34949061751325322
1435.4412136740889,0.37208271615251437
1436.7496944527691,0.38656751963718111
1438.0581752314492,0.39584966064451188
1439.3666560101294,0.40074065539292553
1440.6751367888096,0.404783341580852
1441.9836175674898,0.40149142024539652
1443.29209834617,0.39552442050380709
1444.6005791248501,0.3801564105144532
1445.9090599035303,0.36135891605967924
1447.2175406822105,0.34307836430742528
1448.5260214608907,0.3328977033854455
1449.8345022395708,0.32699492291247495
1451.142983018251,0.3207768005234396
1452.4514637969312,0.305651955187419
1453.7599445756114,0.2939882794615018
1455.0684253542915,0.29010506618413956
1456.3769061329717,0.28772522177645976
1457.6853869116519,0.27870712278260829
1458.9938676903321,0.26105413165149766
1460.3023484690123,0.24528803250615741
1461.6108292476924,0.23246266602376831
1462.9193100263726,0.22155376808529009
1464.2277908050528,0.20388076771925739
1465.536271583733,0.18518726639928076
1466.8447523624131,0.16873578786871107
1468.1532331410933,0.15247268753705209
1469.4617139197735,0.13781206376453134
1470.7701946984537,0.12645681472670528
1472.0786754771339,0.11802138015821645
1473.387156255814,0.11148996116352176
1474.6956370344942,0.10145164815183853
1476.0041178131744,0.089908209255099
1477.3125985918546,0.083004985037536103
1478.6210793705347,0.079293164264676044
1479.9295601492149,0.074344647594627597
1481.2380409278951,0.066984994821891367
1482.5465217065753,0.061409582098869195
1483.8550024852555,0.059502654938274689
1485.1634832639356,0.053210936658462007
1486.4719640426158,0.043368555789053062
1487.780444821296,0.036985126082343313
1489.0889255999762,0.038655755683611633
1490.3974063786563,0.04702107342977762
1491.7058871573365,0.051080401218494421
1493.0143679360167,0.043538398779217675
1494.3228487146969,0.034460327124959091
1495.6313294933771,0.028705215719355581
1496.9398102720572,0.028988379123047383
1498.2482910507374,0.028838002105395697
1499.5567718294176,0.02801512485455504
1500.8652526080978,0.02991714929078049
1502.1737333867779,0.030966230778734043
1503.4822141654581,0.029935870277600411
1504.7906949441383,0.028365567033213166
1506.0991757228185,0.0287646267834481
1507.4076565014986,0.032426375000979231
1508.7161372801788,0.035431886216194121
1510.024618058859,0.03638503590388311
1511.3330988375392,0.035047196181205671
1512.6415796162194,0.034096488218964771
1513.9500603948995,0.030699732234322596
1515.2585411735797,0.028657768576903678
1516.5670219522599,0.0326110800302934
1517.8755027309401,0.039490173534335891
1519.1839835096202,0.043870573287810924
1520.4924642883004,0.049411255712731694
1521.8009450669806,0.049778763455632292
1523.1094258456608,0.04956070747085177
1524.417906624341,0.050248523963260447
1525.7263874030211,0.049115096046470748
1527.0348681817013,0.049073017996994532
1528.3433489603815,0.054810295343725834
1529.6518297390617,0.052046834551411923
1530.9603105177418,0.047363343396643665
1532.268791296422,0.047911671719540652
1533.5772720751022,0.051550186589182458
1534.8857528537824,0.055548714078486633
1536.1942336324626,0.052987123816911945
1537.5027144111427,0.040598005159099365
1538.8111951898229,0.033054960714967538
1540.1196759685031,0.032215652668401928
1541.4281567471833,0.032269016235981329
1542.7366375258634,0.038221878147166252
1544.0451183045436,0.045205885491124212
1545.3535990832238,0.043379713243581378
1546.662079861904,0.042129229342700199
1547.9705606405842,0.042441669392574238
1549.2790414192643,0.044072444839802251
1550.5875221979445,0.048022722202689182
1551.8960029766247,0.048763726842807997
1553.2044837553049,0.048612027356178054
1554.512964533985,0.05196228137003938
1555.8214453126652,0.052220709992265857
1557.1299260913454,0.05332537955960609
1558.4384068700256,0.055766827586674075
1559.7468876487058,0.058698345107482397
1561.0553684273859,0.064605719267036787
1562.3638492060661,0.069250783794713
1563.6723299847463,0.072413096986935099
1564.9808107634265,0.075333166073024774
1566.2892915421066,0.074770635205102756
1567.5977723207868,0.073685081622916759
1568.906253099467,0.077209235692581757
1570.2147338781472,0.084373010404612495
1571.5232146568273,0.096761374392368094
1572.8316954355075,0.10873214792787382
1574.1401762141877,0.11254359609853697
1575.4486569928679,0.11505997456732144
1576.7571377715481,0.12312719669170373
1578.0656185502282,0.12748738556633055
1579.3740993289084,0.12918424815526852
1580.6825801075886,0.13028114871783061
1581.9910608862688,0.1306231454727218
1583.2995416649489,0.13212239384778449
1584.6080224436291,0.13114250407642139
1585.9165032223093,0.12695762077385672
1587.2249840009895,0.12768322552871419
1588.5334647796697,0.13441559719976054
1589.8419455583498,0.14334479249263213
1591.15042633703,0.15408260466814214
1592.4589071157102,0.16725234140802314
1593.7673878943904,0.17845293356406872
1595.0758686730705,0.19096573110644563
1596.3843494517507,0.20512917707430448
1597.6928302304309,0.21119785653898615
1599.0013110091111,0.21290652750626871
1600.3097917877913,0.2143674001072588
1601.6182725664714,0.2124430829118312
1602.9267533451516,0.20651683696206458
1604.2352341238318,0.19174826561587871
1605.543714902512,0.17336795370380031
1606.8521956811921,0.16443040600458367
1608.1606764598723,0.15706861023006552
1609.4691572385525,0.1457541904699341
1610.7776380172327,0.13179882906692106
1612.0861187959129,0.11914139147720773
1613.394599574593,0.11613982129209839
1614.7030803532732,0.11761504427914195
1616.0115611319534,0.11266275535458765
1617.3200419106336,0.11098671212911894
1618.6285226893137,0.10919419593323393
1619.9370034679939,0.10608976890776536
1621.2454842466741,0.1061359708760222
1622.5539650253543,0.10587720631039926
1623.8624458040345,0.1050486784070262
1625.1709265827146,0.10627308322663484
1626.4794073613948,0.10138809873520267
1627.787888140075,0.09873198626668106
1629.0963689187552,0.10023572549542557
1630.4048496974353,0.10234856220109226
1631.7133304761155,0.10237166612965098
1633.0218112547957,0.10325407229578934
1634.3302920334759,0.10556938096101981
1635.638772812156,0.10809764734514681
1636.9472535908362,0.109810380914034
1638.2557343695164,0.11715022510177715
1639.5642151481966,0.12014717514286763
1640.8726959268768,0.12600634056084975
1642.1811767055569,0.12334772562086649
1643.4896574842371,0.12180353146548192
1644.7981382629173,0.12846661919431465
1646.1066190415975,0.13758867539224126
1647.4150998202776,0.13406625787166884
1648.7235805989578,0.12983544580138304
1650.032061377638,0.12239057500784882
1651.3405421563182,0.12639267610140284
1652.6490229349984,0.1293169833544551
1653.9575037136785,0.13231877257032212
1655.2659844923587,0.13118470018943998
1656.5744652710389,0.1310628910418101
1657.8829460497191,0.13035242682562331
1659.1914268283992,0.13173501638500487
1660.4999076070794,0.13543984479704921
1661.8083883857596,0.14439615397001049
1663.1168691644398,0.14451102347257899
1664.42534994312,0.14115745568497326
1665.7338307218001,0.13969511000722276
1667.0423115004803,0.14016676452661006
1668.3507922791605,0.14463598444170978
1669.6592730578407,0.15001774623919076
1670.9677538365208,0.15263501302589136
1672.276234615201,0.1571208079599149
1673.5847153938812,0.16006130533977359
1674.8931961725614,0.15660808471793744
1676.2016769512416,0.15344855050883274
1677.5101577299217,0.15463915313882873
1678.8186385086019,0.15852706670139988
1680.1271192872821,0.16418228539819582
1681.4356000659623,0.16548605653091575
1682.7440808446424,0.16278513660666044
1684.0525616233226,0.16487202762570161
1685.3610424020028,0.16835212969982985
1686.669523180683,0.16978434769882031
1687.9780039593631,0.16966677592472063
1689.2864847380433,0.16902602612146325
1690.5949655167235,0.17173866496053972
1691.9034462954037,0.17563532743494159
1693.2119270740839,0.1776379793456343
1694.520407852764,0.17859489263011211
1695.8288886314442,0.17807886423978322
1697.1373694101244,0.17986314467308573
1698.4458501888046,0.17913160472264744
1699.7543309674847,0.1830219190401487
1701.0628117461649,0.18740563026901633
1702.3712925248451,0.19204903018778938
1703.6797733035253,0.19796045850486554
1704.9882540822055,0.20458075683422564
1706.2967348608856,0.20940902640608633
1707.6052156395658,0.2168688516331394
1708.913696418246,0.21974254016217681
1710.2221771969262,0.22267344444850307
1711.5306579756063,0.23070274653613698
1712.8391387542865,0.24408001705810844
1714.1476195329667,0.25934287115181631
1715.4561003116469,0.2721997133440085
1716.7645810903271,0.28068631219110479
1718.0730618690072,0.28543035365295566
1719.3815426476874,0.29277213943146385
1720.6900234263676,0.30010233583906476
1721.9985042050478,0.30436879228318864
1723.3069849837279,0.30712327165018921
1724.6154657624081,0.31133011884959483
1725.9239465410883,0.31289179811573037
1727.2324273197685,0.3129273180413174
1728.5409080984487,0.31067880190271313
1729.8493888771288,0.30653130494849323
1731.157869655809,0.30345547755466035
1732.4663504344892,0.30009342855518489
1733.7748312131694,0.29446442328018274
1735.0833119918495,0.29157969572130726
1736.3917927705297,0.29206325129860666
1737.7002735492099,0.29061919757495636
1739.0087543278901,0.27876617874534643
1740.3172351065703,0.27132476481148127
1741.6257158852504,0.26984433769774346
1742.9341966639306,0.27290844722457314
1744.2426774426108,0.27343304609191033
1745.551158221291,0.26784710599483907
1746.8596389999711,0.26138852813066354
