200.73535860000001,0.10891166235244543
202.04383937868022,0.10543305450036672
203.35232015736042,0.1017267040528467
204.66080093604063,0.097875699718075818
205.96928171472084,0.094657179117955001
207.27776249340104,0.094279329510983043
208.58624327208125,0.092850693030338577
209.89472405076145,0.08770275590387111
211.20320482944166,0.078040914100218114
212.51168560812187,0.062604895993791515
213.82016638680207,0.056447275955480242
215.12864716548228,0.06021274186499645
216.43712794416248,0.065794870044772524
217.74560872284269,0.067214212077949434
219.0540895015229,0.067995282931572212
220.3625702802031,0.072627100581173429
221.67105105888331,0.081179509567193914
222.97953183756351,0.079548580567108895
224.28801261624372,0.074697359672683469
225.59649339492393,0.073149420693958175
226.90497417360413,0.079707424261301979
228.21345495228434,0.087623686365400938
229.52193573096454,0.082535265606282229
230.83041650964475,0.078835663141214415
232.13889728832496,0.085397396056916791
233.44737806700516,0.090406749980290066
234.75585884568537,0.089939193800586459
236.06433962436557,0.078885713282950007
237.37282040304578,0.061758481312618005
238.68130118172598,0.055044422956704676
239.98978196040619,0.048758389955341708
241.2982627390864,0.044834272338802883
242.6067435177666,0.045807207679446613
243.91522429644681,0.044891190792193267
245.22370507512701,0.046482249686223179
246.53218585380722,0.04413222836452628
247.84066663248743,0.038935572202583972
249.14914741116763,0.037840213926394237
250.45762818984784,0.034660319139662887
251.76610896852804,0.035178680913803266
253.07458974720825,0.038381265995035226
254.38307052588846,0.035608986600263473
255.69155130456866,0.035617544703501404
257.00003208324887,0.040895058766461372
258.30851286192905,0.044994716925243143
259.61699364060922,0.047030960349472052
260.9254744192894,0.043918339930830885
262.23395519796958,0.040293370343163118
263.54243597664976,0.043537074384313472
264.85091675532993,0.051569265289520827
266.15939753401011,0.061265007443759505
267.46787831269029,0.064728798392272649
268.77635909137047,0.061594285964238674
270.08483987005064,0.055493323592993381
271.39332064873082,0.055798308656256505
272.701801427411,0.064594351859884075
274.01028220609118,0.072466939830113236
275.31876298477135,0.069097527930492564
276.62724376345153,0.062045646991909946
277.93572454213171,0.056083087737279692
279.24420532081189,0.052212435797275261
280.55268609949206,0.049375528185040325
281.86116687817224,0.048100218854396248
283.16964765685242,0.048183893115769261
284.4781284355326,0.048453120891117314
285.78660921421277,0.048067108079255939
287.09508999289295,0.049270923348517667
288.40357077157313,0.053994615261909081
289.71205155025331,0.058442069077530398
291.02053232893348,0.061768690775159313
292.32901310761366,0.068163310789257678
293.63749388629384,0.077395408505048016
294.94597466497402,0.081809019349681447
296.25445544365419,0.083686927929319241
297.56293622233437,0.088483924903443964
298.87141700101455,0.093978771175074999
300.17989777969473,0.10109732807863085
301.4883785583749,0.11017238121140566
302.79685933705508,0.12036619091948597
304.10534011573526,0.13204020203702121
305.41382089441544,0.14352041859186868
306.72230167309561,0.14835536015229145
308.03078245177579,0.15253415423351313
309.33926323045597,0.15807351667331335
310.64774400913615,0.164274371370383
311.95622478781632,0.17125287662890296
313.2647055664965,0.17934577361069598
314.57318634517668,0.18185157810477845
315.88166712385686,0.18100357308242196
317.19014790253703,0.18164651910548202
318.49862868121721,0.18044069280466929
319.80710945989739,0.17590024613021643
321.11559023857757,0.17173260248478511
322.42407101725775,0.17024075449016848
323.73255179593792,0.17128966319860878
325.0410325746181,0.17338011636018358
326.34951335329828,0.17118220591970321
327.65799413197846,0.16647314968761459
328.96647491065863,0.16305807776767481
330.27495568933881,0.15970718040610032
331.58343646801899,0.15581747279044511
332.89191724669917,0.14946386190936983
334.20039802537934,0.14534221513523182
335.50887880405952,0.14520035879316981
336.8173595827397,0.14732932364491458
338.12584036141988,0.1474148857647424
339.43432114010005,0.1510237834831617
340.74280191878023,0.15870720693710527
342.05128269746041,0.16887991467715185
343.35976347614059,0.17405112868169692
344.66824425482076,0.17825494407882325
345.97672503350094,0.18745877756630608
347.28520581218112,0.20432420516648597
348.5936865908613,0.21832055657172397
349.90216736954147,0.23056463939409549
351.21064814822165,0.2396673869838957
352.51912892690183,0.25167681722448448
353.82760970558201,0.27023367867995857
355.13609048426218,0.29138335670341814
356.44457126294236,0.31306625251531883
357.75305204162254,0.33193321072411253
359.06153282030272,0.342415930486833
360.37001359898289,0.3504541209972058
361.67849437766307,0.36154048702027797
362.98697515634325,0.36732759219435518
364.29545593502343,0.36679805954435424
365.6039367137036,0.36149110622578734
366.91241749238378,0.35500389937154914
368.22089827106396,0.35231763436816588
369.52937904974414,0.35130227104102679
370.83785982842431,0.33894261193604425
372.14634060710449,0.31384618772566414
373.45482138578467,0.28856637443986677
374.76330216446485,0.26647310747285191
376.07178294314502,0.24827258393755156
377.3802637218252,0.23227580276496199
378.68874450050538,0.21425629270094104
379.99722527918556,0.19872950066774084
381.30570605786573,0.18983992345796402
382.61418683654591,0.17790415757578198
383.92266761522609,0.16352675564057445
385.23114839390627,0.1475928070817068
386.53962917258644,0.13308914196228264
387.84810995126662,0.12658711267689265
389.1565907299468,0.11934857750269592
390.46507150862698,0.11664850854431935
391.77355228730715,0.11277552881348046
393.08203306598733,0.10489077389733914
394.39051384466751,0.10080017047223171
395.69899462334769,0.09531554684261008
397.00747540202786,0.087461578804779228
398.31595618070804,0.085002124346105878
399.62443695938822,0.081696872485496161
400.9329177380684,0.07947246968082769
402.24139851674857,0.073792460654740391
403.54987929542875,0.066427430625797021
404.85836007410893,0.066851203893395814
406.16684085278911,0.07209309404293425
407.47532163146928,0.077475371197223655
408.78380241014946,0.077415621698773293
410.09228318882964,0.075358274141543904
411.40076396750982,0.076986283118296861
412.70924474619,0.07056931467310032
414.01772552487017,0.065562881910803464
415.32620630355035,0.068483688133979356
416.63468708223053,0.075862604279568382
417.94316786091071,0.079142989116378862
419.25164863959088,0.081181106192257088
420.56012941827106,0.076996010728978756
421.86861019695124,0.076475251811806561
423.17709097563142,0.076040317521153492
424.48557175431159,0.073558029360455246
425.79405253299177,0.075316142975896699
427.10253331167195,0.082224027318526863
428.41101409035213,0.082746731986979294
429.7194948690323,0.08321653869739494
431.02797564771248,0.080010291625101038
432.33645642639266,0.072980881571566805
433.64493720507284,0.066799728086858412
434.95341798375301,0.058864373942522523
436.26189876243319,0.05239509266498573
437.57037954111337,0.048491747453535794
438.87886031979355,0.046000398751011029
440.18734109847372,0.046023609695920939
441.4958218771539,0.043014431661122697
442.80430265583408,0.037548290483782269
444.11278343451426,0.030914424334873167
445.42126421319443,0.025058284168451316
446.72974499187461,0.021710491833923179
448.03822577055479,0.019883403485801452
449.34670654923497,0.021685217377126639
450.65518732791514,0.024939113627418748
451.96366810659532,0.025593066214552703
453.2721488852755,0.024640398067063855
454.58062966395568,0.02257668706537435
455.88911044263585,0.021483907368398836
457.19759122131603,0.017497573143291107
458.50607199999621,0.0072897181573664148
459.81455277867639,0.0061887592951308749
461.12303355735656,0.0094309713758364173
462.43151433603674,0.014261042234823936
463.73999511471692,0.016939939254879334
465.0484758933971,0.014227213139688173
466.35695667207727,0.012125534058914219
467.66543745075745,0.017626519625966851
468.97391822943763,0.018791094143821001
470.28239900811781,0.019298429699293705
471.59087978679798,0.019476376551822997
472.89936056547816,0.020770910241133349
474.20784134415834,0.026938385642527006
475.51632212283852,0.034362630314594265
476.82480290151869,0.034418030296256098
478.13328368019887,0.032690198647616887
479.44176445887905,0.029200776141797436
480.75024523755923,0.029945195729184457
482.0587260162394,0.037068563081355831
483.36720679491958,0.044227969336429578
484.67568757359976,0.052043829893866446
485.98416835227994,0.050286811004057144
487.29264913096011,0.042289480536804126
488.60112990964029,0.040308569771887785
489.90961068832047,0.04166230795182236
491.21809146700065,0.047516555632349723
492.52657224568082,0.055203217902164238
493.835053024361,0.056017378344852368
495.14353380304118,0.054916206791983543
496.45201458172136,0.04842630210523878
497.76049536040153,0.042065770311163507
499.06897613908171,0.040744424311515738
500.37745691776189,0.042249006977292239
501.68593769644207,0.043299084122836992
502.99441847512225,0.040480505172790088
504.30289925380242,0.041821271744385657
505.6113800324826,0.044024770625322063
506.91986081116278,0.041214739259411701
508.22834158984296,0.035307881385544887
509.53682236852313,0.033949894305723594
510.84530314720331,0.035655268765365879
512.15378392588354,0.040146416989498404
513.46226470456372,0.03837824407234855
514.7707454832439,0.034916680281215272
516.07922626192408,0.037043396527736444
517.38770704060425,0.040314084118427136
518.69618781928443,0.03970650532420527
520.00466859796461,0.039899598703829746
521.31314937664479,0.039096883572368527
522.62163015532497,0.046025828673817056
523.93011093400514,0.054994242313843131
525.23859171268532,0.057304653223879932
526.5470724913655,0.056443452532702491
527.85555327004568,0.056776453872317174
529.16403404872585,0.055229780793612973
530.47251482740603,0.058789263706458483
531.78099560608621,0.058188107347864511
533.08947638476639,0.054669250299556181
534.39795716344656,0.059462956343108983
535.70643794212674,0.063569335277466013
537.01491872080692,0.067030352437435173
538.3233994994871,0.074953032605026393
539.63188027816727,0.07962222400884858
540.94036105684745,0.077757102978099027
542.24884183552763,0.077718245453150148
543.55732261420781,0.075750441584935629
544.86580339288798,0.082228225028111779
546.17428417156816,0.090611211011921197
547.48276495024834,0.092096546391523704
548.79124572892852,0.08553442532745717
550.09972650760869,0.077747050313173457
551.40820728628887,0.070848732462220509
552.71668806496905,0.071731786330341468
554.02516884364923,0.072152779729495076
555.3336496223294,0.072062072810720579
556.64213040100958,0.070274185272787865
557.95061117968976,0.066191135158362738
559.25909195836994,0.064208049747949136
560.56757273705011,0.065245386298331848
561.87605351573029,0.064910232229516002
563.18453429441047,0.069006351286829928
564.49301507309065,0.070853198762254058
565.80149585177082,0.070501043704752325
567.109976630451,0.073079651052251435
568.41845740913118,0.075454081909331602
569.72693818781136,0.074569338056299686
571.03541896649153,0.072294859322921984
572.34389974517171,0.072628912399748752
573.65238052385189,0.078415616742131156
574.96086130253207,0.088815131577363357
576.26934208121224,0.09428144828552032
577.57782285989242,0.094117911487646574
578.8863036385726,0.094010689294315011
580.19478441725278,0.095349231627159886
581.50326519593295,0.097424017336458321
582.81174597461313,0.097936514367035987
584.12022675329331,0.097471562936888648
585.42870753197349,0.10201932936673519
586.73718831065366,0.11200459435599147
588.04566908933384,0.11948760270545086
589.35414986801402,0.12555018537467488
590.6626306466942,0.1304050431652849
591.97111142537437,0.13593990515012611
593.27959220405455,0.14874495382997002
594.58807298273473,0.16564655437222633
595.89655376141491,0.1817432135003246
597.20503454009508,0.19846367597498454
598.51351531877526,0.21969726784974317
599.82199609745544,0.25190562758674684
601.13047687613562,0.29569228966333827
602.43895765481579,0.33938402763323122
603.74743843349597,0.37759009815385008
605.05591921217615,0.41422450692285445
606.36439999085633,0.45654190408861728
607.6728807695365,0.50362624374671394
608.98136154821668,0.54655938419678807
610.28984232689686,0.58173482810647814
611.59832310557704,0.60958255275744211
612.90680388425722,0.62887789872731059
614.21528466293739,0.64405830406411524
615.52376544161757,0.66230736951969493
616.83224622029775,0.68106973966920492
618.14072699897793,0.69444536153160463
619.4492077776581,0.70419464135987442
620.75768855633828,0.70723911029117759
622.06616933501846,0.71563413263847875
623.37465011369864,0.72885908660306176
624.68313089237881,0.73745017871074459
625.99161167105899,0.75327400761453067
627.30009244973917,0.77849814235669945
628.60857322841935,0.80577164605807594
629.91705400709952,0.84266042467246305
631.2255347857797,0.88297186154348339
632.53401556445988,0.92188357087684969
633.84249634314006,0.95456358826633192
635.15097712182023,0.97566637088669816
636.45945790050041,0.98715189636579481
637.76793867918059,0.99228164792736606
639.07641945786077,0.99411598163513859
640.38490023654094,0.98882128092472577
641.69338101522112,0.97247729871012578
643.0018617939013,0.94475075826276889
644.31034257258148,0.90174126700460289
645.61882335126165,0.85342048772196277
646.92730412994183,0.81381234009472181
648.23578490862201,0.76729100915564219
649.54426568730219,0.71612372013660508
650.85274646598236,0.66160431214149473
652.16122724466254,0.60603519060436883
653.46970802334272,0.55952922522616477
654.7781888020229,0.51874743553702174
656.08666958070307,0.48219880397321968
657.39515035938325,0.461774397683406
658.70363113806343,0.44567033481106466
660.01211191674361,0.42790861467856833
661.32059269542378,0.41399704054498027
662.62907347410396,0.40361725698397127
663.93755425278414,0.4044098813433481
665.24603503146432,0.40918991722934456
666.55451581014449,0.41102761022065804
667.86299658882467,0.40897616471796588
669.17147736750485,0.41392025368154733
670.47995814618503,0.41919609975299288
671.7884389248652,0.42385329897226587
673.09691970354538,0.42880189421102149
674.40540048222556,0.43320608929759019
675.71388126090574,0.44017874901269843
677.02236203958591,0.45172273677935071
678.33084281826609,0.46363824166620538
679.63932359694627,0.48586691851066249
680.94780437562645,0.52166145422037236
682.25628515430662,0.56149519678354187
683.5647659329868,0.59446887432764361
684.87324671166698,0.61883051890120311
686.18172749034716,0.64323180684522496
687.49020826902733,0.67380524652244311
688.79868904770751,0.70721039720793899
690.10716982638769,0.72998532051875575
691.41565060506787,0.74342064699660526
692.72413138374804,0.75383511401143533
694.03261216242822,0.7623094863204245
695.3410929411084,0.7719894904340745
696.64957371978858,0.77371238224585193
697.95805449846875,0.76194255356694263
699.26653527714893,0.74289192016497663
700.57501605582911,0.71850612756786081
701.88349683450929,0.69386187645774455
703.19197761318947,0.67405627793165068
704.50045839186964,0.65080841068195139
705.80893917054982,0.62437392029013483
707.11741994923,0.59390608853814419
708.42590072791018,0.55987244977201822
709.73438150659035,0.52446188765664481
711.04286228527053,0.49515099773584176
712.35134306395071,0.46239591347001885
713.65982384263089,0.42430947805450353
714.96830462131106,0.38517204549876233
716.27678539999124,0.35113178021386066
717.58526617867142,0.32234926008787429
718.8937469573516,0.30050388639248926
720.20222773603177,0.27695709554196946
721.51070851471195,0.25472584136466692
722.81918929339213,0.23526993449801456
724.12767007207231,0.21684830065440797
725.43615085075248,0.20030605899042531
726.74463162943266,0.18270476089754661
728.05311240811284,0.1658982647335446
729.36159318679302,0.15170415587800076
730.67007396547319,0.1394275396022
731.97855474415337,0.13007335993788877
733.28703552283355,0.12111093339890887
734.59551630151373,0.11257613279203554
735.9039970801939,0.10334876879566489
737.21247785887408,0.088733284772938903
738.52095863755426,0.075577517276005715
739.82943941623444,0.06806735769945213
741.13792019491461,0.063769822882789498
742.44640097359479,0.056827221752714874
743.75488175227497,0.043184333659010664
745.06336253095515,0.03383902710482603
746.37184330963532,0.032893829326041353
747.6803240883155,0.03695854777352147
748.98880486699568,0.034430500465346618
750.29728564567586,0.030496032811642003
751.60576642435603,0.029490090217952049
752.91424720303621,0.03032234264919112
754.22272798171639,0.032278269314343133
755.53120876039657,0.028371531759785597
756.83968953907674,0.030100857745043254
758.14817031775692,0.039936521592545897
759.4566510964371,0.043434479537927201
760.76513187511728,0.040577420464094169
762.07361265379745,0.04062619437804834
763.38209343247763,0.040457008335835633
764.69057421115781,0.048461904787776677
765.99905498983799,0.051237075884833026
767.30753576851816,0.054275942700477683
768.61601654719834,0.062111226495132794
769.92449732587852,0.074550370158884244
771.2329781045587,0.073048375175320049
772.54145888323887,0.069666214884867142
773.84993966191905,0.068482799240263764
775.15842044059923,0.073202098747563157
776.46690121927941,0.077765576082433868
777.77538199795958,0.080380574427288728
779.08386277663976,0.074154092959762608
780.39234355531994,0.080370925624896047
781.70082433400012,0.093748936292468027
783.00930511268029,0.10189958510721461
784.31778589136047,0.097157715901755315
785.62626667004065,0.090604304355836551
786.93474744872083,0.084336125452031202
788.243228227401,0.090956861280159451
789.55170900608118,0.10932688509178129
790.86018978476136,0.13942397229775655
792.16867056344154,0.1806880508865516
793.47715134212172,0.23162131928672766
794.78563212080189,0.2707031594439927
796.09411289948207,0.29815644563077887
797.40259367816225,0.31875227403915574
798.71107445684243,0.33374575238451815
800.0195552355226,0.34113339135612847
801.32803601420278,0.34362681284455743
802.63651679288296,0.33919507914406788
803.94499757156314,0.33828198195911596
805.25347835024331,0.33700937746569654
806.56195912892349,0.32640356415622773
807.87043990760367,0.30632917952736222
809.17892068628385,0.28589088535226165
810.48740146496402,0.26693156668101709
811.7958822436442,0.25028779274431801
813.10436302232438,0.22953763408612998
814.41284380100456,0.20250969189549611
815.72132457968473,0.17401678198298107
817.02980535836491,0.15339529343079542
818.33828613704509,0.13579695144446438
819.64676691572527,0.12164060410600931
820.95524769440544,0.10985899110730354
822.26372847308562,0.10510423468784504
823.5722092517658,0.11278149917733292
824.88069003044598,0.12255187489966557
826.18917080912615,0.13031492956865567
827.49765158780633,0.13964659531751056
828.80613236648651,0.14541209973355604
830.11461314516669,0.15096016321253325
831.42309392384686,0.15972150158638684
832.73157470252704,0.16271947443137613
834.04005548120722,0.17077223362860666
835.3485362598874,0.17578782770728588
836.65701703856757,0.17621341729576112
837.96549781724775,0.1771407449976897
839.27397859592793,0.17882120607456925
840.58245937460811,0.18015053563733235
841.89094015328828,0.17892061240392479
843.19942093196846,0.17880707090779557
844.50790171064864,0.17994134284497892
845.81638248932882,0.18051886722396737
847.12486326800899,0.18289681390138307
848.43334404668917,0.18998667577850298
849.74182482536935,0.2014018552726346
851.05030560404953,0.21824153558012577
852.3587863827297,0.22433099387867617
853.66726716140988,0.2288622360719775
854.97574794009006,0.23743262380661725
856.28422871877024,0.24219259341556018
857.59270949745041,0.24631177376760024
858.90119027613059,0.246266125617538
860.20967105481077,0.24434262852220487
861.51815183349095,0.24417228323667658
862.82663261217112,0.24154170678596773
864.1351133908513,0.23420986524864984
865.44359416953148,0.22580940650435505
866.75207494821166,0.21019894085956875
868.06055572689183,0.19652593527436218
869.36903650557201,0.18520573783273933
870.67751728425219,0.17522971422033901
871.98599806293237,0.16715494006686715
873.29447884161254,0.16626999047074026
874.60295962029272,0.16990268366790887
875.9114403989729,0.16883169407428331
877.21992117765308,0.15745274428317188
878.52840195633325,0.14527610434772154
879.83688273501343,0.13587463547140774
881.14536351369361,0.12607706518444725
882.45384429237379,0.11952364356648924
883.76232507105397,0.11193249836014751
885.07080584973414,0.10898249549635645
886.37928662841432,0.11034280116296329
887.6877674070945,0.10874320274582344
888.99624818577468,0.10476972578809252
890.30472896445485,0.10588513920817362
891.61320974313503,0.10572638284808492
892.92169052181521,0.11174746842539766
894.23017130049539,0.11154344158019894
895.53865207917556,0.10425921702312509
896.84713285785574,0.096215898009579179
898.15561363653592,0.090817209572989471
899.4640944152161,0.088809062604523065
900.77257519389627,0.089091962584077672
902.08105597257645,0.088394989307609584
903.38953675125663,0.086763193822035317
904.69801752993681,0.079647379953197386
906.00649830861698,0.069221398570688639
907.31497908729716,0.061566594982101548
908.62345986597734,0.055207931479455206
909.93194064465752,0.055322847623480109
911.24042142333769,0.053980097867424692
912.54890220201787,0.052724784918172243
913.85738298069805,0.051173261554320046
915.16586375937823,0.047600057062615261
916.4743445380584,0.046044400034673014
917.78282531673858,0.043741776753796618
919.09130609541876,0.04157068901722049
920.39978687409894,0.04002090939477923
921.70826765277911,0.03617426684857044
923.01674843145929,0.034278999889775036
924.32522921013947,0.037581219170969855
925.63370998881965,0.042868977972877934
926.94219076749982,0.047243000801367285
928.25067154618,0.045310737534661485
929.55915232486018,0.040880445426179447
930.86763310354036,0.038616060193778001
932.17611388222053,0.04062239727810435
933.48459466090071,0.045942460472919291
934.79307543958089,0.053753305498447791
936.10155621826107,0.062702461901769077
937.41003699694124,0.069064906598119757
938.71851777562142,0.074232007513102716
940.0269985543016,0.076596346732890508
941.33547933298178,0.07481902426899352
942.64396011166195,0.07330468138034886
943.95244089034213,0.077546919526590888
945.26092166902231,0.089616079028379647
946.56940244770249,0.099262557724765374
947.87788322638266,0.10208796459256456
949.18636400506284,0.10497771698176392
950.49484478374302,0.11338112990248259
951.8033255624232,0.11789716965348593
953.11180634110337,0.1239217790623694
954.42028711978355,0.12864392700470956
955.72876789846373,0.14834560167915709
957.03724867714391,0.1813036683754721
958.34572945582408,0.21660364354889822
959.65421023450426,0.24694815731587899
960.96269101318444,0.27344445507421838
962.27117179186462,0.28891733406063569
963.57965257054479,0.30071728825256755
964.88813334922497,0.30564228172785718
966.19661412790515,0.3090685497601926
967.50509490658533,0.30736056751604812
968.8135756852655,0.29593591063410546
970.12205646394568,0.27662330247114453
971.43053724262586,0.26287212925419762
972.73901802130604,0.24976879118673997
974.04749879998622,0.23627697322110655
975.35597957866639,0.21822590707969358
976.66446035734657,0.19656416715150415
977.97294113602675,0.17433656332811021
979.28142191470693,0.1503277939123423
980.5899026933871,0.12097219365232814
981.89838347206728,0.096396776147872079
983.20686425074746,0.076527253492408187
984.51534502942764,0.062200910587084567
985.82382580810781,0.052616962698599425
987.13230658678799,0.045472147003609291
988.44078736546817,0.038586332928552881
989.74926814414835,0.032382931885935586
991.05774892282852,0.030869611248992811
992.3662297015087,0.034416693716949609
993.67471048018888,0.038782942069088992
994.98319125886906,0.042042137112170377
996.29167203754923,0.043249228113157907
997.60015281622941,0.042499452605529245
998.90863359490959,0.043690630147547295
1000.2171143735898,0.045903788512495713
1001.5255951522699,0.043969267252183399
1002.8340759309501,0.044889722334770558
1004.1425567096303,0.04797713403901898
1005.4510374883105,0.051512585673624878
1006.7595182669907,0.05288123965801389
1008.0679990456708,0.04796658592489339
1009.376479824351,0.045639335104846399
1010.6849606030312,0.052941607550877776
1011.9934413817114,0.058831594463492141
1013.3019221603915,0.056006459493417135
1014.6104029390717,0.048828210321393457
1015.9188837177519,0.044572015728495513
1017.2273644964321,0.046441426583482347
1018.5358452751123,0.053470494151749808
1019.8443260537924,0.051043154692099781
1021.1528068324726,0.048905825505804815
1022.4612876111528,0.048774635087324367
1023.769768389833,0.051390707957087264
1025.0782491685131,0.057120250771132045
1026.3867299471933,0.064236379098878194
1027.6952107258735,0.069352638366797933
1029.0036915045537,0.072733786185181545
1030.3121722832338,0.072379959949134154
1031.620653061914,0.07499140686916056
1032.9291338405942,0.081411103826718373
1034.2376146192744,0.090603553833412759
1035.5460953979546,0.095933748186004017
1036.8545761766347,0.094992193017590792
1038.1630569553149,0.10048037396465223
1039.4715377339951,0.10951836545462319
1040.7800185126753,0.11619706973422478
1042.0884992913554,0.11341797380773619
1043.3969800700356,0.10446517255078805
1044.7054608487158,0.095998454000857991
1046.013941627396,0.093069045154638735
1047.3224224060762,0.091432343121669257
1048.6309031847563,0.083821741357895593
1049.9393839634365,0.081458568649776533
1051.2478647421167,0.080033203612731807
1052.5563455207969,0.078134412514802784
1053.864826299477,0.07371474796293298
1055.1733070781572,0.073692217859128217
1056.4817878568374,0.084674520044433724
1057.7902686355176,0.10344129858162407
1059.0987494141978,0.10739248965514726
1060.4072301928779,0.10759581803655534
1061.7157109715581,0.10832535253850953
1063.0241917502383,0.12411762043501301
1064.3326725289185,0.1419935731821278
1065.6411533075986,0.15058552126676547
1066.9496340862788,0.1491498263103482
1068.258114864959,0.14621286992761515
1069.5665956436392,0.14438333961338945
1070.8750764223194,0.14608062054876333
1072.1835572009995,0.14708762047642415
1073.4920379796797,0.14968486591459754
1074.8005187583599,0.14803182418590285
1076.1089995370401,0.1431406245609563
1077.4174803157202,0.14044528947871943
1078.7259610944004,0.1388672897622816
1080.0344418730806,0.13511388714689399
1081.3429226517608,0.13156041342462108
1082.651403430441,0.12477195088837882
1083.9598842091211,0.12808704197962614
1085.2683649878013,0.13619696016939148
1086.5768457664815,0.14076996498684205
1087.8853265451617,0.14479424656589118
1089.1938073238418,0.15389589153967551
1090.502288102522,0.16563296799227673
1091.8107688812022,0.1801049932053696
1093.1192496598824,0.18753045475403154
1094.4277304385625,0.18848015195818815
1095.7362112172427,0.19249139353708783
1097.0446919959229,0.19705864583267854
1098.3531727746031,0.19595991451241007
1099.6616535532833,0.1885919674063723
1100.9701343319634,0.18046222900877207
1102.2786151106436,0.17563770303484616
1103.5870958893238,0.17541347424468345
1104.895576668004,0.1794144014822795
1106.2040574466841,0.18098367758838804
1107.5125382253643,0.17610258871999498
1108.8210190040445,0.16599081134660568
1110.1294997827247,0.15584282679809749
1111.4379805614049,0.1508743449295617
1112.746461340085,0.15270038214223405
1114.0549421187652,0.14947377792979441
1115.3634228974454,0.14041417260498856
1116.6719036761256,0.13509092545681223
1117.9803844548057,0.12899122325559978
1119.2888652334859,0.12450320837670834
1120.5973460121661,0.12287822671484347
1121.9058267908463,0.12108482795145492
1123.2143075695265,0.11675931430293685
1124.5227883482066,0.11329743433454421
1125.8312691268868,0.1093782935146794
1127.139749905567,0.10860240460107062
1128.4482306842472,0.10522445006937922
1129.7567114629273,0.092985173327750886
1131.0651922416075,0.078644854502357989
1132.3736730202877,0.070500571561371198
1133.6821537989679,0.065953062781509045
1134.9906345776481,0.057847251803145018
1136.2991153563282,0.052810850640251775
1137.6075961350084,0.047291086251474532
1138.9160769136886,0.042803991053448578
1140.2245576923688,0.039448413975295436
1141.5330384710489,0.036689479278783826
1142.8415192497291,0.033646481938659448
1144.1500000284093,0.032354176275969572
1145.4584808070895,0.03350926794993879
1146.7669615857696,0.042688152890918062
1148.0754423644498,0.059893240723740221
1149.38392314313,0.076847153610885066
1150.6924039218102,0.084741021301809188
1152.0008847004904,0.088488435157558235
1153.3093654791705,0.093922014432549411
1154.6178462578507,0.10522468680548643
1155.9263270365309,0.11947955361139545
1157.2348078152111,0.12763019150795188
1158.5432885938912,0.12973766118086522
1159.8517693725714,0.1347893002121642
1161.1602501512516,0.14823797887705809
1162.4687309299318,0.15928968594253229
1163.777211708612,0.15809790863656759
1165.0856924872921,0.15255701530498836
1166.3941732659723,0.1588811158690511
1167.7026540446525,0.17262432916087517
1169.0111348233327,0.17667194006911288
1170.3196156020128,0.16322200973414655
1171.628096380693,0.14161883797115646
1172.9365771593732,0.13794626784302638
1174.2450579380534,0.14959728694741764
1175.5535387167336,0.17641999408017789
1176.8620194954137,0.19871851274318481
1178.1705002740939,0.20867162466185174
1179.4789810527741,0.20403643451482698
1180.7874618314543,0.19430818659833782
1182.0959426101344,0.18183641246441265
1183.4044233888146,0.18044578317294366
1184.7129041674948,0.17451131203694006
1186.021384946175,0.17249472999736892
1187.3298657248552,0.16250390782159271
1188.6383465035353,0.14266413359449248
1189.9468272822155,0.12687055076361148
1191.2553080608957,0.1149340860063409
1192.5637888395759,0.10533003854386445
1193.872269618256,0.096038951719584584
1195.1807503969362,0.07883254972343566
1196.4892311756164,0.066346100062392346
1197.7977119542966,0.061388444992642364
1199.1061927329768,0.057489590918640261
1200.4146735116569,0.046614274459028653
1201.7231542903371,0.03410005838055629
1203.0316350690173,0.023086448756648503
1204.3401158476975,0.018219021056972408
1205.6485966263776,0.019185703404680218
1206.9570774050578,0.025028033739262566
1208.265558183738,0.028393463574412938
1209.5740389624182,0.036710173799398123
1210.8825197410983,0.040176009362231674
1212.1910005197785,0.04307287736468305
1213.4994812984587,0.051818328604621988
1214.8079620771389,0.055859508987578896
1216.1164428558191,0.053967003468381805
1217.4249236344992,0.0527712967061853
1218.7334044131794,0.053608493382436354
1220.0418851918596,0.058322599312692083
1221.3503659705398,0.063202402771203842
1222.6588467492199,0.060979971557665991
1223.9673275279001,0.059564069520201803
1225.2758083065803,0.060603620997320369
1226.5842890852605,0.063524678917401392
1227.8927698639407,0.072558916743123564
1229.2012506426208,0.083087288471479198
1230.509731421301,0.09233855276918275
1231.8182121999812,0.096316590720604153
1233.1266929786614,0.093509058902508504
1234.4351737573415,0.09098946907291898
1235.7436545360217,0.093863818914995276
1237.0521353147019,0.099390769582631516
1238.3606160933821,0.11026870429722883
1239.6690968720623,0.11438107255874005
1240.9775776507424,0.11501647611057904
1242.2860584294226,0.11917602266936458
1243.5945392081028,0.12784614465730243
1244.903019986783,0.13845274727084322
1246.2115007654631,0.14654899958304032
1247.5199815441433,0.14864959194999181
1248.8284623228235,0.15110217922761182
1250.1369431015037,0.15182271080479515
1251.4454238801839,0.15451744132618353
1252.753904658864,0.15435844396046763
1254.0623854375442,0.1618023377907267
1255.3708662162244,0.16604273111765758
1256.6793469949046,0.16671903375604852
1257.9878277735847,0.16796411279480852
1259.2963085522649,0.17042575041786695
1260.6047893309451,0.17127012833438612
1261.9132701096253,0.17500289130844882
1263.2217508883055,0.17102185148705612
1264.5302316669856,0.16982705899617434
1265.8387124456658,0.1732471388240964
1267.147193224346,0.17903340715041621
1268.4556740030262,0.18461359795595941
1269.7641547817063,0.17947709358482838
1271.0726355603865,0.17025757257341276
1272.3811163390667,0.16452157640353421
1273.6895971177469,0.1659184185335737
1274.998077896427,0.16914811778556271
1276.3065586751072,0.16796667666905205
1277.6150394537874,0.16046185330501941
1278.9235202324676,0.15631195792241795
1280.2320010111478,0.15516342848318088
1281.5404817898279,0.15637204405636623
1282.8489625685081,0.15955932367612505
1284.1574433471883,0.16384063305280702
1285.4659241258685,0.16649250654059711
1286.7744049045486,0.16859896730978335
1288.0828856832288,0.17287675824330551
1289.391366461909,0.18125732224623942
1290.6998472405892,0.19592062339539199
1292.0083280192694,0.21199023423052438
1293.3168087979495,0.2241553481282918
1294.6252895766297,0.22945454558403269
1295.9337703553099,0.23667982921064562
1297.2422511339901,0.25137140176878964
1298.5507319126702,0.27058269644195471
1299.8592126913504,0.28997317777314718
1301.1676934700306,0.30271893848631748
1302.4761742487108,0.30889461000493029
1303.784655027391,0.31855910099747542
1305.0931358060711,0.32885157849333146
1306.4016165847513,0.33961747095548789
1307.7100973634315,0.35354808600864557
1309.0185781421117,0.35990301846339706
1310.3270589207918,0.35634205387042828
1311.635539699472,0.34924398733185891
1312.9440204781522,0.34194536887479854
1314.2525012568324,0.33704883368874877
1315.5609820355126,0.33532027421440824
1316.8694628141927,0.3251126462871386
1318.1779435928729,0.31283611338567635
1319.4864243715531,0.30202569105261901
1320.7949051502333,0.28970282906507361
1322.1033859289134,0.2777052957916562
1323.4118667075936,0.26819680748904728
1324.7203474862738,0.26016229370540778
1326.028828264954,0.25811229380186823
1327.3373090436341,0.25751954070877286
1328.6457898223143,0.25051735815769222
1329.9542706009945,0.24517058426111066
1331.2627513796747,0.24101076702396487
1332.5712321583549,0.23726808574753275
1333.879712937035,0.23539604128232861
1335.1881937157152,0.2312773376492675
1336.4966744943954,0.22714451247005996
1337.8051552730756,0.2285327950987317
1339.1136360517557,0.22866990616712091
1340.4221168304359,0.23483370672101875
1341.7305976091161,0.24361625804913487
1343.0390783877963,0.24894134738883775
1344.3475591664765,0.25542346591155701
1345.6560399451566,0.26124227449382609
1346.9645207238368,0.26494723002510656
1348.273001502517,0.26813738216767535
1349.5814822811972,0.26480423730754926
1350.8899630598773,0.2539704311362988
1352.1984438385575,0.23863247657656775
1353.5069246172377,0.22263332998008603
1354.8154053959179,0.21206500057943087
1356.1238861745981,0.20709530123090922
1357.4323669532782,0.1980240899144759
1358.7408477319584,0.18221875986303157
1360.0493285106386,0.16788513749616338
1361.3578092893188,0.15357954850934633
1362.6662900679989,0.13857905902828155
1363.9747708466791,0.12136852130279147
1365.2832516253593,0.1031768353202296
1366.5917324040395,0.092064143693699807
1367.9002131827197,0.091002657014792029
1369.2086939613998,0.090779379355819964
1370.51717474008,0.085397759289448816
1371.8256555187602,0.074575054002022606
1373.1341362974404,0.064687048375332179
1374.4426170761205,0.061309798531269458
1375.7510978548007,0.06412349015239327
1377.0595786334809,0.069852725023217904
1378.3680594121611,0.066890840544336444
1379.6765401908413,0.063235777631264603
1380.9850209695214,0.065644290318717685
1382.2935017482016,0.069421493425784075
1383.6019825268818,0.073981641942857806
1384.910463305562,0.075210797876967314
1386.2189440842421,0.071347804159892239
1387.5274248629223,0.068360168772923724
1388.8359056416025,0.064754354923655458
1390.1443864202827,0.057403101553622167
1391.4528671989628,0.054119768938873998
1392.761347977643,0.055435647601867109
1394.0698287563232,0.057115713787186217
1395.3783095350034,0.058420031348622323
1396.6867903136836,0.058251921536749122
1397.9952710923637,0.05458406097378548
1399.3037518710439,0.05067085727135115
1400.6122326497241,0.050504636894947656
1401.9207134284043,0.052952402139681866
1403.2291942070844,0.057137147313144475
1404.5376749857646,0.061399741129927965
1405.8461557644448,0.069156351275106692
1407.154636543125,0.075838280821474674
1408.4631173218052,0.083676745846416975
1409.7715981004853,0.088265355156811609
1411.0800788791655,0.092404970190872918
1412.3885596578457,0.10210086310509918
1413.6970404365259,0.11327427872308908
1415.005521215206,0.12409691400017532
1416.3140019938862,0.14154909453802952
1417.6224827725664,0.15751651106671599
1418.9309635512466,0.17687934484994383
1420.2394443299268,0.19959533921433589
1421.5479251086069,0.2232743030525404
1422.8564058872871,0.24629201698370343
1424.1648866659673,0.27115691475363085
1425.4733674446475,0.2870857592858489
1426.7818482233276,0.30123976803840447
1428.0903290020078,0.31239703006306724
1429.398809780688,0.32418721299601588
1430.7072905593682,0.33677355742387882
1432.0157713380484,0.35222302550747459
1433.3242521167285,0.36247942753999896
1434.6327328954087,0.36792543486664148
1435.9412136740889,0.36942575759400959
1437.2496944527691,0.3739102846317563
1438.5581752314492,0.38090123751620125
1439.8666560101294,0.38162872677964194
1441.1751367888096,0.37368766402357079
1442.4836175674898,0.35722955423202962
1443.79209834617,0.34514057454692859
1445.1005791248501,0.3321410921171345
1446.4090599035303,0.31638788043723065
1447.7175406822105,0.30432370507641726
1449.0260214608907,0.29752664617750119
1450.3345022395708,0.29303202610391105
1451.642983018251,0.2855288963237867
1452.9514637969312,0.27139417934590154
1454.2599445756114,0.26346906490541411
1455.5684253542915,0.26051246620983787
1456.8769061329717,0.25369522389637716
1458.1853869116519,0.24094041780039185
1459.4938676903321,0.22514391559282615
1460.8023484690123,0.21446622401897947
1462.1108292476924,0.20175825630263458
1463.4193100263726,0.18517475056652113
1464.7277908050528,0.16874407205368733
1466.036271583733,0.15539295816056961
1467.3447523624131,0.1476077559171137
1468.6532331410933,0.13893188210683416
1469.9617139197735,0.12546641623261387
1471.2701946984537,0.11581052627369413
1472.5786754771339,0.1072865292112883
1473.887156255814,0.099286114555438718
1475.1956370344942,0.094387378765867058
1476.5041178131744,0.086672764284330323
1477.8125985918546,0.077087976414848408
1479.1210793705347,0.068890207059066427
1480.4295601492149,0.060853075370574342
1481.7380409278951,0.057810205522020951
1483.0465217065753,0.05314187160988651
1484.3550024852555,0.046199621190962395
1485.6634832639356,0.039593607559073291
1486.9719640426158,0.033104437332039084
1488.280444821296,0.032132571485661246
1489.5889255999762,0.028900871881175575
1490.8974063786563,0.031189115544743344
1492.2058871573365,0.034365919557921724
1493.5143679360167,0.034405079913141415
1494.8228487146969,0.034219552188788901
1496.1313294933771,0.034989087403009059
1497.4398102720572,0.032402888533524417
1498.7482910507374,0.03173776498956174
1500.0567718294176,0.025282906471951357
1501.3652526080978,0.024066569904699745
1502.6737333867779,0.024798170998987328
1503.9822141654581,0.02579317553871345
1505.2906949441383,0.0248915606889961
1506.5991757228185,0.022187516138228891
1507.9076565014986,0.020494172081278315
1509.2161372801788,0.022258256719191679
1510.524618058859,0.023069431422898884
1511.8330988375392,0.022513171535386147
1513.1415796162194,0.020994769286077249
1514.4500603948995,0.016501975825236312
1515.7585411735797,0.021183077289363642
1517.0670219522599,0.029717432003869254
1518.3755027309401,0.029362751745121825
1519.6839835096202,0.030108356123836645
1520.9924642883004,0.030340745896268114
1522.3009450669806,0.031018015639668477
1523.6094258456608,0.036094773460257565
1524.917906624341,0.035168548868465259
1526.2263874030211,0.034216711962555039
1527.5348681817013,0.037190055991705023
1528.8433489603815,0.034393903948025856
1530.1518297390617,0.029575245995675424
1531.4603105177418,0.025721870367026507
1532.768791296422,0.025379296671702582
1534.0772720751022,0.028259566279494053
1535.3857528537824,0.030626644802526526
1536.6942336324626,0.033021524993800726
1538.0027144111427,0.032244380745066643
1539.3111951898229,0.027919052344274664
1540.6196759685031,0.021425324148520497
1541.9281567471833,0.017530632399260285
1543.2366375258634,0.021985486525094945
1544.5451183045436,0.024404475706039666
1545.8535990832238,0.023513874994071482
1547.162079861904,0.021984623065785813
1548.4705606405842,0.022707856486570654
1549.7790414192643,0.027551518390787046
1551.0875221979445,0.029368610520087757
1552.3960029766247,0.025102267820033306
1553.7044837553049,0.024388739226958292
1555.012964533985,0.025096912616713166
1556.3214453126652,0.027688497333135546
1557.6299260913454,0.033746279266428279
1558.9384068700256,0.037630384737037323
1560.2468876487058,0.040458298727940968
1561.5553684273859,0.04360270781040889
1562.8638492060661,0.048109134692044003
1564.1723299847463,0.049758640229461047
1565.4808107634265,0.050830412219368688
1566.7892915421066,0.051760599314615852
1568.0977723207868,0.055918910082033778
1569.406253099467,0.061964393770967963
1570.7147338781472,0.068878634412595952
1572.0232146568273,0.075763575178985076
1573.3316954355075,0.082730873127638146
1574.6401762141877,0.08538792549021941
1575.9486569928679,0.079171088487376876
1577.2571377715481,0.070614470317064221
1578.5656185502282,0.06779427102853447
1579.8740993289084,0.072563930782167121
1581.1825801075886,0.075608079247724183
1582.4910608862688,0.077354377520367584
1583.7995416649489,0.073185080084662263
1585.1080224436291,0.069542639960139596
1586.4165032223093,0.072924203114354519
1587.7249840009895,0.072751721430694444
1589.0334647796697,0.074081653779269632
1590.3419455583498,0.075883766365075489
1591.65042633703,0.072864084825870187
1592.9589071157102,0.073279651144912722
1594.2673878943904,0.080655665071923413
1595.5758686730705,0.088506768498489458
1596.8843494517507,0.10435857139040725
1598.1928302304309,0.11667491748778576
1599.5013110091111,0.12833431195378672
1600.8097917877913,0.1421589926706901
1602.1182725664714,0.16018865726233317
1603.4267533451516,0.17843614119470558
1604.7352341238318,0.1997218618513209
1606.043714902512,0.21673570279687146
1607.3521956811921,0.23043888585677647
1608.6606764598723,0.2374365989704911
1609.9691572385525,0.23445149551418126
1611.2776380172327,0.22565817158521895
1612.5861187959129,0.21646902231676296
1613.894599574593,0.20674982013060283
1615.2030803532732,0.1911635764668323
1616.5115611319534,0.16533356836015922
1617.8200419106336,0.14574414244876252
1619.1285226893137,0.13398960578590485
1620.4370034679939,0.12244993691423636
1621.7454842466741,0.10657207929689062
1623.0539650253543,0.087405246666296565
1624.3624458040345,0.076296829296163327
1625.6709265827146,0.075249179150383608
1626.9794073613948,0.071215934950765433
1628.287888140075,0.067868511996265229
1629.5963689187552,0.061830133972738829
1630.9048496974353,0.055206371312069707
1632.2133304761155,0.056957515744750907
1633.5218112547957,0.057073474010050432
1634.8302920334759,0.053226520370190503
1636.138772812156,0.050912617649715677
1637.4472535908362,0.048284785044702537
1638.7557343695164,0.05441604152587845
1640.0642151481966,0.059487202787223969
1641.3726959268768,0.054037980911004473
1642.6811767055569,0.053667952924351309
1643.9896574842371,0.056826166894483811
1645.2981382629173,0.060013512514596565
1646.6066190415975,0.060457550888597979
1647.9150998202776,0.058141657856288873
1649.2235805989578,0.05790565718012898
1650.532061377638,0.061418738743332868
1651.8405421563182,0.061858772371452514
1653.1490229349984,0.061016635688252462
1654.4575037136785,0.06108928053345139
1655.7659844923587,0.061776102908886299
1657.0744652710389,0.061435079121493673
1658.3829460497191,0.062669197118384215
1659.6914268283992,0.066393756226163211
1660.9999076070794,0.07178422412674676
1662.3083883857596,0.071853961145610518
1663.6168691644398,0.06622751034273483
1664.92534994312,0.066113234677903462
1666.2338307218001,0.07017871799931906
1667.5423115004803,0.077343705153576567
1668.8507922791605,0.082251592322614919
1670.1592730578407,0.078891077585813069
1671.4677538365208,0.074753953845893339
1672.776234615201,0.074477939846010699
1674.0847153938812,0.07248166420964075
1675.3931961725614,0.070799863067331076
1676.7016769512416,0.070889277395786626
1678.0101577299217,0.069978178371205957
1679.3186385086019,0.071975349940041358
1680.6271192872821,0.075554747317104543
1681.9356000659623,0.074896739232223244
1683.2440808446424,0.073633354436564838
1684.5525616233226,0.07839400569121098
1685.8610424020028,0.081133949998529575
1687.169523180683,0.079584959734557467
1688.4780039593631,0.077439063789051674
1689.7864847380433,0.074892211471514536
1691.0949655167235,0.076801292012409941
1692.4034462954037,0.077600062383131704
1693.7119270740839,0.074312036890506111
1695.020407852764,0.075676534267759665
1696.3288886314442,0.08044326990909223
1697.6373694101244,0.085289588331431243
1698.9458501888046,0.089584236518331944
1700.2543309674847,0.090154756873579808
1701.5628117461649,0.089875452635918104
1702.8712925248451,0.09093991210283825
1704.1797733035253,0.089908229610980536
1705.4882540822055,0.093910095064775184
1706.7967348608856,0.10231886831895447
1708.1052156395658,0.11336171534082463
1709.413696418246,0.12521048967714948
1710.7221771969262,0.1343120009128182
1712.0306579756063,0.13710226405269627
1713.3391387542865,0.14982066709159958
1714.6476195329667,0.16346400693188445
1715.9561003116469,0.17519730394078939
1717.2645810903271,0.1882795257951847
1718.5730618690072,0.19998791055587323
1719.8815426476874,0.21574013687490334
1721.1900234263676,0.23158560846159354
1722.4985042050478,0.24176246738994883
1723.8069849837279,0.25218160515912991
1725.1154657624081,0.25935880440377335
1726.4239465410883,0.25902432807981385
1727.7324273197685,0.26295663616023712
1729.0409080984487,0.26416965067255122
1730.3493888771288,0.26967290538849126
1731.657869655809,0.26910010278098556
1732.9663504344892,0.2589860251730422
1734.2748312131694,0.24985140011171553
1735.5833119918495,0.24312894400968849
1736.8917927705297,0.2316239148095573
1738.2002735492099,0.22548113326370564
1739.5087543278901,0.21409568982325958
1740.8172351065703,0.19944293394865906
1742.1257158852504,0.18944038952959327
1743.4341966639306,0.17772171684830856
1744.7426774426108,0.16674264791419191
1746.051158221291,0.15999998465554366
1747.3596389999711,0.15327005409883471
